Wavelength	Tablay400081.asd
350	 0.110253245343513 
351	 6.35769842097809E-02 
352	 4.91922879606419E-02 
353	 0.105763767587389 
354	 8.99284593915863E-02 
355	 9.50279505549579E-02 
356	 0.127825504815047 
357	 0.16771136267976 
358	 0.168164699740756 
359	 0.13782294121977 
360	 0.117965956781724 
361	 0.141175307311521 
362	 0.109716564854658 
363	 7.76254906600249E-02 
364	 7.39235700563717E-02 
365	 4.25569780985604E-02 
366	 9.95572405280148E-02 
367	 0.14319120167981 
368	 8.98810877209856E-02 
369	 7.88334798495487E-02 
370	 6.23691434481486E-02 
371	 4.77766223941243E-02 
372	 6.97760924416109E-02 
373	 9.26462053706514E-02 
374	 9.15374509066193E-02 
375	 7.61295002009863E-02 
376	 9.89938306670625E-02 
377	 7.69226262153512E-02 
378	 6.38752660654091E-02 
379	 9.26666967453295E-02 
380	 1.57369704802047E-02 
381	 1.96873467070217E-02 
382	 8.93230633864301E-02 
383	 8.91699527468423E-02 
384	 5.43210157280552E-02 
385	 2.91889541879915E-02 
386	 4.06094745459697E-02 
387	 8.60621454283685E-02 
388	 7.07643090311442E-02 
389	 0.039914418594158 
390	 5.24192157021505E-02 
391	 5.63368469082749E-02 
392	 7.68503973168461E-02 
393	 8.90462484310614E-02 
394	 0.049971624585231 
395	 5.91069328590344E-02 
396	 7.21999994841734E-02 
397	 6.08828033201887E-02 
398	 4.99739595133626E-02 
399	 6.50755445737035E-02 
400	 8.44915029832829E-02 
401	 8.53342040741097E-02 
402	 8.25593828371527E-02 
403	 0.076816722339705 
404	 7.21973146286066E-02 
405	 7.41168883546939E-02 
406	 7.01449122487076E-02 
407	 6.33590862685382E-02 
408	 5.86366179438236E-02 
409	 6.03244714257976E-02 
410	 0.065580767874702 
411	 7.21132228840466E-02 
412	 7.63005559628562E-02 
413	 6.68124627269134E-02 
414	 5.89939411262101E-02 
415	 0.058181320842205 
416	 6.00978455773857E-02 
417	 0.062890298113437 
418	 6.20828778294354E-02 
419	 5.74411356984189E-02 
420	 5.81477667944021E-02 
421	 6.12597757878576E-02 
422	 6.31525197031824E-02 
423	 0.061019853956523 
424	 5.90709274387346E-02 
425	 5.80100054101358E-02 
426	 5.71853309744462E-02 
427	 5.48676018207105E-02 
428	 5.87157987782832E-02 
429	 6.04794787803617E-02 
430	 0.055924981651122 
431	 6.30952817212626E-02 
432	 6.37612319591481E-02 
433	 0.059344074686122 
434	 6.03750610875227E-02 
435	 0.056014919105741 
436	 5.63440970553527E-02 
437	 6.25177591441322E-02 
438	 5.93284953955648E-02 
439	 0.056739616083645 
440	 5.80923035626653E-02 
441	 6.30288780952628E-02 
442	 6.49313937998872E-02 
443	 6.39566179903953E-02 
444	 0.061510062555992 
445	 5.98585930321934E-02 
446	 0.061411278480821 
447	 6.32426151637448E-02 
448	 6.29205176905644E-02 
449	 6.04299409155907E-02 
450	 5.92652948021848E-02 
451	 6.12279136742533E-02 
452	 6.57705075987035E-02 
453	 0.063984008428797 
454	 6.29585850570732E-02 
455	 6.50101126779215E-02 
456	 6.61767552186276E-02 
457	 6.26773761460689E-02 
458	 6.09491280940293E-02 
459	 6.48436078227592E-02 
460	 6.41336176377297E-02 
461	 6.56125532465129E-02 
462	 6.62740140832923E-02 
463	 6.02451442643782E-02 
464	 6.37468001120446E-02 
465	 0.068028379012231 
466	 6.71840531084997E-02 
467	 6.32401742934909E-02 
468	 6.43627611244281E-02 
469	 6.67938837851118E-02 
470	 6.57196349125261E-02 
471	 6.75783582737741E-02 
472	 6.77214748305781E-02 
473	 6.58402186769231E-02 
474	 6.50925548354243E-02 
475	 6.50040409466068E-02 
476	 6.52423978993041E-02 
477	 6.56358693065548E-02 
478	 6.67117311192381E-02 
479	 6.52262750231881E-02 
480	 6.34858479045051E-02 
481	 6.49825234090368E-02 
482	 6.66623698912237E-02 
483	 6.65985075282645E-02 
484	 6.53320342536274E-02 
485	 6.58932224449526E-02 
486	 6.63295994312073E-02 
487	 6.56819023322185E-02 
488	 0.064115453943586 
489	 6.44437091485819E-02 
490	 6.43090126042599E-02 
491	 6.43018864442928E-02 
492	 6.61274961456335E-02 
493	 6.50072909214748E-02 
494	 6.50154902087118E-02 
495	 6.71464148658067E-02 
496	 0.065825742773645 
497	 6.52743129487426E-02 
498	 6.45656044156558E-02 
499	 6.24036593343788E-02 
500	 6.26462737764542E-02 
501	 6.36689447177477E-02 
502	 6.40975523931952E-02 
503	 6.31235806497883E-02 
504	 6.23097520900271E-02 
505	 6.19072700836988E-02 
506	 6.19334329041003E-02 
507	 6.26761929575335E-02 
508	 6.24117340001933E-02 
509	 6.17402508618739E-02 
510	 6.19410346395323E-02 
511	 6.11965443757999E-02 
512	 6.04042483294912E-02 
513	 6.01649762278804E-02 
514	 6.04345678445323E-02 
515	 6.03318941411017E-02 
516	 5.93006330046626E-02 
517	 0.057491181017219 
518	 5.68125101043302E-02 
519	 5.72145423377189E-02 
520	 5.76323466903877E-02 
521	 5.66301017132486E-02 
522	 5.67375533005349E-02 
523	 5.68601494409038E-02 
524	 5.63416994226398E-02 
525	 5.64396278822522E-02 
526	 5.56515242140719E-02 
527	 5.47020994327928E-02 
528	 5.47267605306614E-02 
529	 5.45967884757761E-02 
530	 5.41632155356877E-02 
531	 5.36020485883617E-02 
532	 5.33540013069499E-02 
533	 5.35504217407746E-02 
534	 5.34549741890791E-02 
535	 5.26629410434146E-02 
536	 5.21542106400029E-02 
537	 5.21210927043458E-02 
538	 5.20871923630575E-02 
539	 0.051364161479341 
540	 5.09585018548415E-02 
541	 5.09461630043575E-02 
542	 0.051000469485676 
543	 5.03117377832435E-02 
544	 5.00200692063424E-02 
545	 5.00336681138204E-02 
546	 4.99374069821137E-02 
547	 4.97075930454187E-02 
548	 0.049346885467846 
549	 4.89433461869942E-02 
550	 4.86558769666392E-02 
551	 4.86740110124821E-02 
552	 4.85826877001543E-02 
553	 4.82026558986453E-02 
554	 0.048259164180506 
555	 0.047982745412079 
556	 4.75746474067445E-02 
557	 4.75784255001421E-02 
558	 4.73869048589356E-02 
559	 4.73206306203945E-02 
560	 4.73807985540194E-02 
561	 4.70097713510232E-02 
562	 4.70034714099075E-02 
563	 4.71069780774022E-02 
564	 4.68986792758678E-02 
565	 4.64330331590747E-02 
566	 4.62271205221291E-02 
567	 4.61995759965067E-02 
568	 4.58687468442772E-02 
569	 4.58120334887327E-02 
570	 4.57379057611558E-02 
571	 0.045514323501526 
572	 4.56488898238757E-02 
573	 4.55016303062231E-02 
574	 4.52461909000227E-02 
575	 4.52577317038444E-02 
576	 4.51434837664073E-02 
577	 4.50497966432405E-02 
578	 4.50267906733253E-02 
579	 4.49800481993956E-02 
580	 4.49623954920812E-02 
581	 4.49033914570201E-02 
582	 4.47591900110469E-02 
583	 4.46351312027212E-02 
584	 4.45823184939589E-02 
585	 4.46038452300088E-02 
586	 4.46313399720601E-02 
587	 4.42551252164531E-02 
588	 4.39635031044425E-02 
589	 4.40358500090486E-02 
590	 4.42607695358228E-02 
591	 4.43545903446059E-02 
592	 0.044263143774062 
593	 4.40597028983141E-02 
594	 4.39269236540832E-02 
595	 4.39110381842535E-02 
596	 4.39015196370409E-02 
597	 0.043679149587299 
598	 4.34497760419151E-02 
599	 4.33039050801553E-02 
600	 4.33002399923907E-02 
601	 4.35218767935414E-02 
602	 4.35599938689421E-02 
603	 0.043392833060047 
604	 4.32027364223372E-02 
605	 4.31980449285517E-02 
606	 4.32123542584706E-02 
607	 4.31791419909586E-02 
608	 4.31976170478463E-02 
609	 4.29643109804627E-02 
610	 0.042766593370813 
611	 4.28554482897533E-02 
612	 4.28636497299109E-02 
613	 4.29014630389742E-02 
614	 4.29809460413319E-02 
615	 4.30284466379634E-02 
616	 4.27494004147035E-02 
617	 4.26085116080878E-02 
618	 4.27392813059909E-02 
619	 4.25061016497238E-02 
620	 4.24443936946923E-02 
621	 4.25153471640418E-02 
622	 4.25341425762239E-02 
623	 4.25822324107769E-02 
624	 0.042579232241927 
625	 0.042506746795343 
626	 4.24148566521892E-02 
627	 0.042455691201212 
628	 4.23623111437159E-02 
629	 4.20788819528627E-02 
630	 4.22911756464525E-02 
631	 4.24124058671443E-02 
632	 0.042300234897055 
633	 4.20718952118436E-02 
634	 0.042129772521934 
635	 4.23036040675808E-02 
636	 4.23758196613422E-02 
637	 4.21453434278032E-02 
638	 4.20994633439478E-02 
639	 4.21914151462181E-02 
640	 4.22389077970978E-02 
641	 4.20789751266348E-02 
642	 4.20285611161195E-02 
643	 4.21082511772146E-02 
644	 4.21435099321284E-02 
645	 4.20119307048526E-02 
646	 4.20303143320602E-02 
647	 4.22160497977126E-02 
648	 4.20027264999188E-02 
649	 4.20294885810646E-02 
650	 4.20622993424081E-02 
651	 0.041798350953309 
652	 4.18148684276329E-02 
653	 4.18383314021837E-02 
654	 4.18574604377458E-02 
655	 4.20599830377851E-02 
656	 4.20837139596519E-02 
657	 4.20579284708241E-02 
658	 4.20720551784947E-02 
659	 4.19407700982235E-02 
660	 4.19328411682218E-02 
661	 0.042007769698395 
662	 4.20258201558741E-02 
663	 4.20032318478567E-02 
664	 0.041968341224974 
665	 4.19663960779547E-02 
666	 4.20456443642133E-02 
667	 4.19429364212301E-02 
668	 4.18582734826952E-02 
669	 4.19623704527835E-02 
670	 4.21462852558568E-02 
671	 4.20995188420822E-02 
672	 4.19179796661681E-02 
673	 0.041873329945641 
674	 4.19495486597844E-02 
675	 4.20839612594492E-02 
676	 4.22185947055787E-02 
677	 4.23116968151956E-02 
678	 0.042227272788729 
679	 4.20842643224432E-02 
680	 4.20238780682843E-02 
681	 4.20585268608758E-02 
682	 0.042101972327808 
683	 4.21623440045585E-02 
684	 4.22711067284311E-02 
685	 4.21846092761736E-02 
686	 4.21525183031855E-02 
687	 4.22474201140395E-02 
688	 4.22257694892752E-02 
689	 4.22428490877114E-02 
690	 4.23053207194639E-02 
691	 4.23738794264951E-02 
692	 4.23939879164621E-02 
693	 4.23482804805912E-02 
694	 4.23111253458681E-02 
695	 4.23938079500799E-02 
696	 0.042489636049986 
697	 4.25510763563653E-02 
698	 4.25232423623708E-02 
699	 4.23156540281781E-02 
700	 0.04234589560514 
701	 4.25032314276877E-02 
702	 4.25766243885282E-02 
703	 4.26276170387441E-02 
704	 4.26513869820145E-02 
705	 4.26570836552792E-02 
706	 4.26654054281891E-02 
707	 0.04270817556054 
708	 4.27640101566826E-02 
709	 4.28053123900396E-02 
710	 4.28049388259102E-02 
711	 4.28409018699782E-02 
712	 0.042885025018243 
713	 4.29068444065866E-02 
714	 4.30060461527942E-02 
715	 4.30997038395324E-02 
716	 4.31352964262094E-02 
717	 4.31053401536335E-02 
718	 4.31825703946261E-02 
719	 4.33049136968141E-02 
720	 4.33892066621212E-02 
721	 4.33715843966501E-02 
722	 4.34127487899095E-02 
723	 4.34656946271941E-02 
724	 0.043461170406189 
725	 4.35053751468446E-02 
726	 4.35961958248563E-02 
727	 4.36905943163885E-02 
728	 4.37292922057091E-02 
729	 0.043790206943282 
730	 4.38259578278274E-02 
731	 0.04382651954038 
732	 4.38688630811588E-02 
733	 4.38838163436431E-02 
734	 4.39023201691474E-02 
735	 4.39651549574558E-02 
736	 4.40477758314545E-02 
737	 4.40635651070063E-02 
738	 4.40947379453437E-02 
739	 4.42912285860876E-02 
740	 4.43294613079887E-02 
741	 4.43644786139061E-02 
742	 4.44774391439154E-02 
743	 4.45552127347417E-02 
744	 4.44916453227199E-02 
745	 4.44969130840085E-02 
746	 4.47022555502549E-02 
747	 4.46732609603823E-02 
748	 4.46705658726895E-02 
749	 0.044774151244121 
750	 4.49247617358753E-02 
751	 4.48938015578108E-02 
752	 4.48407806372782E-02 
753	 4.48619562280839E-02 
754	 4.49162501209621E-02 
755	 4.50376885365772E-02 
756	 4.51068793107064E-02 
757	 4.50675189235738E-02 
758	 4.51363723682642E-02 
759	 4.52093086948926E-02 
760	 4.52070021386239E-02 
761	 4.51158721280528E-02 
762	 4.52468032065749E-02 
763	 4.53925582048711E-02 
764	 4.54570197481423E-02 
765	 4.55074068117224E-02 
766	 4.55693188127689E-02 
767	 4.55884645869386E-02 
768	 4.55657843190486E-02 
769	 4.56791343315757E-02 
770	 4.56700145960295E-02 
771	 4.56761932857751E-02 
772	 4.58733742454603E-02 
773	 4.58732917458207E-02 
774	 4.58714214687706E-02 
775	 0.045910414816851 
776	 4.58993060887423E-02 
777	 4.59434988875031E-02 
778	 0.046017665843283 
779	 4.60726714607317E-02 
780	 4.60503916751964E-02 
781	 4.61279573027616E-02 
782	 4.61905953358462E-02 
783	 4.61413629721883E-02 
784	 4.62653732240744E-02 
785	 4.62821509222122E-02 
786	 4.62235514465952E-02 
787	 4.62815856015775E-02 
788	 4.63708061475992E-02 
789	 0.046453151216883 
790	 4.64891521765905E-02 
791	 4.64426061155187E-02 
792	 4.64721702292767E-02 
793	 4.65854131505684E-02 
794	 4.67164491440401E-02 
795	 4.67088259723408E-02 
796	 0.04668242307928 
797	 0.046725874066128 
798	 4.68577901335177E-02 
799	 4.68261023831636E-02 
800	 4.68238837345946E-02 
801	 4.69235708365503E-02 
802	 4.70676920825785E-02 
803	 4.70516457405072E-02 
804	 4.70442810421345E-02 
805	 4.71275993144093E-02 
806	 4.71774389582466E-02 
807	 4.72025864728534E-02 
808	 4.72317525409004E-02 
809	 0.047283207277552 
810	 4.73244328451726E-02 
811	 4.73341901721824E-02 
812	 4.73851232162733E-02 
813	 4.75383454916557E-02 
814	 4.75507686342578E-02 
815	 4.75181020434253E-02 
816	 4.75318548221527E-02 
817	 0.047649944977789 
818	 0.047847677769669 
819	 0.04793107224526 
820	 0.04789596969244 
821	 4.80782955863593E-02 
822	 4.81927569131209E-02 
823	 4.82435623297389E-02 
824	 4.82877498898317E-02 
825	 4.82878342001036E-02 
826	 4.83542513339046E-02 
827	 4.84341809059947E-02 
828	 4.84413965923121E-02 
829	 4.85667414048156E-02 
830	 4.87493602450852E-02 
831	 4.88738245543432E-02 
832	 4.88243331557986E-02 
833	 4.88198270328276E-02 
834	 4.89475211147304E-02 
835	 4.91422701782934E-02 
836	 4.91507566693673E-02 
837	 4.93879856246178E-02 
838	 4.95710809375622E-02 
839	 0.049488637055628 
840	 4.96209954180936E-02 
841	 0.049742319788095 
842	 4.98411298254741E-02 
843	 4.99697971584542E-02 
844	 5.00628745632146E-02 
845	 0.050231325289434 
846	 5.04445470476493E-02 
847	 5.05652014466891E-02 
848	 5.05245533945771E-02 
849	 5.05457070845265E-02 
850	 5.07221776763898E-02 
851	 5.09386120160938E-02 
852	 0.051140370004108 
853	 5.12330344418076E-02 
854	 0.051267446117991 
855	 5.16125679024531E-02 
856	 5.17297169378924E-02 
857	 5.17994948115731E-02 
858	 5.20763198699747E-02 
859	 5.22183702788068E-02 
860	 5.22884168353619E-02 
861	 5.24209107443736E-02 
862	 5.27201205272811E-02 
863	 5.28981344266706E-02 
864	 5.31064427286473E-02 
865	 5.33194367104472E-02 
866	 5.33768822127959E-02 
867	 5.36008388271632E-02 
868	 5.38450796512552E-02 
869	 0.054020085432984 
870	 5.42053049664864E-02 
871	 5.44417591550437E-02 
872	 5.46583448016882E-02 
873	 5.48509295080954E-02 
874	 5.52262840048217E-02 
875	 5.55231824214879E-02 
876	 5.56429392204361E-02 
877	 5.56657717462072E-02 
878	 0.056065884996437 
879	 5.64504269074917E-02 
880	 5.67441784387911E-02 
881	 5.70314432750051E-02 
882	 5.73064038698075E-02 
883	 5.75367653039583E-02 
884	 0.057809969587088 
885	 0.058257849175882 
886	 5.86052657881898E-02 
887	 5.89058016008075E-02 
888	 5.92074347766594E-02 
889	 0.059508318567663 
890	 5.98700943471772E-02 
891	 6.02874866513997E-02 
892	 6.07051165377575E-02 
893	 6.10128711951868E-02 
894	 6.13668708302346E-02 
895	 6.17242431560216E-02 
896	 6.20683606766024E-02 
897	 6.25936953671608E-02 
898	 6.30477442093367E-02 
899	 6.34254899828049E-02 
900	 6.38045811339747E-02 
901	 6.42009562401128E-02 
902	 6.47129659245056E-02 
903	 0.065241013589624 
904	 6.56473073839554E-02 
905	 6.61609152208068E-02 
906	 6.66751170091561E-02 
907	 6.72025656559139E-02 
908	 0.06782418168146 
909	 6.83623744326818E-02 
910	 6.89259753639131E-02 
911	 6.95222902499142E-02 
912	 7.00421816766529E-02 
913	 7.05627796865181E-02 
914	 7.11544394451335E-02 
915	 0.071800624193981 
916	 0.072383155563496 
917	 7.31225495711665E-02 
918	 7.37709817686346E-02 
919	 7.42556471369336E-02 
920	 7.49851800654069E-02 
921	 7.56806056687229E-02 
922	 7.62655523657568E-02 
923	 7.68503283283361E-02 
924	 7.78795141624949E-02 
925	 7.88589266984735E-02 
926	 7.95585669349885E-02 
927	 8.00554022690944E-02 
928	 8.10859316163929E-02 
929	 8.20016606598287E-02 
930	 8.27309521164103E-02 
931	 8.34483022062262E-02 
932	 8.42000437345195E-02 
933	 8.50075649658944E-02 
934	 8.58881192800493E-02 
935	 8.68384494000092E-02 
936	 8.77852290580904E-02 
937	 8.86533151901952E-02 
938	 8.95802774063173E-02 
939	 9.07535607617971E-02 
940	 9.16948964419475E-02 
941	 9.27352443939878E-02 
942	 9.37652167748205E-02 
943	 9.43760226631758E-02 
944	 9.54055478511874E-02 
945	 9.65282233791117E-02 
946	 9.75520180008532E-02 
947	 9.85701313432127E-02 
948	 9.95397041688625E-02 
949	 0.100558746149466 
950	 0.10174425674494 
951	 0.103165033073395 
952	 0.104267283751058 
953	 0.105132519318188 
954	 0.106040792497631 
955	 0.107324567630532 
956	 0.108481809216259 
957	 0.109421360596272 
958	 0.110411428588734 
959	 0.11210565258639 
960	 0.113180746013625 
961	 0.114308163810938 
962	 0.115877074991264 
963	 0.116807744076361 
964	 0.117620634471295 
965	 0.118747247346779 
966	 0.120289403059333 
967	 0.121697665362375 
968	 0.122770420882286 
969	 0.123835689508753 
970	 0.125193106461069 
971	 0.126642819757853 
972	 0.127952457187534 
973	 0.12912664925993 
974	 0.130300938718308 
975	 0.131718588982867 
976	 0.132925142951536 
977	 0.134067274587778 
978	 0.135362942153273 
979	 0.136598650279811 
980	 0.137910310553386 
981	 0.139364948461004 
982	 0.140912163342564 
983	 0.142242086688292 
984	 0.143455894842165 
985	 0.144736129173566 
986	 0.146276975444379 
987	 0.148305932952223 
988	 0.149512751896387 
989	 0.150369795574109 
990	 0.151689792704857 
991	 0.152967321276823 
992	 0.154396526008066 
993	 0.155989277967716 
994	 0.157561661329777 
995	 0.158501106500559 
996	 0.159821349987128 
997	 0.161259953390586 
998	 0.162395241517789 
999	 0.163933728013083 
1000	 0.165502804758275 
1001	 0.166960898432773 
1002	 0.168501521941805 
1003	 0.170207787904547 
1004	 0.171636971697121 
1005	 0.1729758484445 
1006	 0.174318971297532 
1007	 0.175522027311275 
1008	 0.176790408144401 
1009	 0.178113085901241 
1010	 0.179390116890194 
1011	 0.18058853408197 
1012	 0.181857332508958 
1013	 0.183029220528605 
1014	 0.184380109667296 
1015	 0.185838563543789 
1016	 0.187472458032869 
1017	 0.188899020598519 
1018	 0.190325269803072 
1019	 0.19164914163097 
1020	 0.192726345929704 
1021	 0.19401123829202 
1022	 0.195500907241558 
1023	 0.196776409971845 
1024	 0.197961168776911 
1025	 0.199176435958957 
1026	 0.200193472512971 
1027	 0.201376289534805 
1028	 0.202649958364252 
1029	 0.20403471564558 
1030	 0.205339356169799 
1031	 0.206665375475121 
1032	 0.207717222436149 
1033	 0.208904208677701 
1034	 0.210177019022517 
1035	 0.211267250393883 
1036	 0.212462108664859 
1037	 0.213786849264457 
1038	 0.214922263469936 
1039	 0.215936411728181 
1040	 0.217128798838677 
1041	 0.218371581832096 
1042	 0.219521602613975 
1043	 0.22070938489536 
1044	 0.221872090829082 
1045	 0.222992682133501 
1046	 0.224143318180125 
1047	 0.225351923400713 
1048	 0.226513049547882 
1049	 0.227563653375971 
1050	 0.22846315324363 
1051	 0.22934225104832 
1052	 0.230417088393056 
1053	 0.231465594747883 
1054	 0.232532314831919 
1055	 0.233569987057373 
1056	 0.234628782515031 
1057	 0.235636980121904 
1058	 0.23656109253946 
1059	 0.237590849544051 
1060	 0.238650674803608 
1061	 0.239695503393029 
1062	 0.240780708566049 
1063	 0.242047852500236 
1064	 0.24315631001012 
1065	 0.244244180762806 
1066	 0.245271564195929 
1067	 0.246013403484314 
1068	 0.246975830857552 
1069	 0.24800296912084 
1070	 0.24896305350881 
1071	 0.24989855280351 
1072	 0.250968556718599 
1073	 0.251927928822996 
1074	 0.25280403983296 
1075	 0.253729077040324 
1076	 0.254644997258583 
1077	 0.255637972282102 
1078	 0.256498285463687 
1079	 0.257291160005254 
1080	 0.258256856433738 
1081	 0.258947145505297 
1082	 0.25973374592748 
1083	 0.260786009994769 
1084	 0.261598593890021 
1085	 0.262452929449217 
1086	 0.263266307398621 
1087	 0.264058213801369 
1088	 0.264732576575662 
1089	 0.265517206947712 
1090	 0.266281277000606 
1091	 0.267034503742756 
1092	 0.267791838702186 
1093	 0.268641420469064 
1094	 0.269508785901144 
1095	 0.270291734580351 
1096	 0.271110561467212 
1097	 0.271818157558818 
1098	 0.272375101953078 
1099	 0.273004653339063 
1100	 0.273644530634196 
1101	 0.274184322631989 
1102	 0.274922033138663 
1103	 0.275649242122371 
1104	 0.276485194785922 
1105	 0.277106200911624 
1106	 0.277717411191711 
1107	 0.278321280931464 
1108	 0.278851364181931 
1109	 0.279455398616151 
1110	 0.280180968554253 
1111	 0.280780946579168 
1112	 0.281198291685398 
1113	 0.281797688062173 
1114	 0.282422030231735 
1115	 0.282969376804427 
1116	 0.283640357450624 
1117	 0.284151279943631 
1118	 0.284657585269248 
1119	 0.285089918138373 
1120	 0.285613154366707 
1121	 0.286109241122157 
1122	 0.286724764683096 
1123	 0.287344600007275 
1124	 0.287859503403338 
1125	 0.288353543072485 
1126	 0.288750017484984 
1127	 0.28923443651692 
1128	 0.289737685922555 
1129	 0.290176478576342 
1130	 0.290730196964374 
1131	 0.291241895072553 
1132	 0.291696673076589 
1133	 0.29219207836572 
1134	 0.292597911734531 
1135	 0.293000033420793 
1136	 0.293334048491755 
1137	 0.293737989533366 
1138	 0.294172805197687 
1139	 0.294596036522425 
1140	 0.295066702720212 
1141	 0.295446829909166 
1142	 0.295817078543677 
1143	 0.296142853414663 
1144	 0.296380494786089 
1145	 0.296698255691857 
1146	 0.297029354752964 
1147	 0.297372616175184 
1148	 0.297711340855701 
1149	 0.29794920733537 
1150	 0.298314808248947 
1151	 0.298671107844689 
1152	 0.298981904150856 
1153	 0.299374644534059 
1154	 0.299704290301717 
1155	 0.299878766095922 
1156	 0.30016246844718 
1157	 0.300551612254257 
1158	 0.300821114669859 
1159	 0.301027372848507 
1160	 0.301304310494501 
1161	 0.301532728841125 
1162	 0.301799421632105 
1163	 0.302043835634352 
1164	 0.302300362929452 
1165	 0.302616604314068 
1166	 0.302826315151255 
1167	 0.303058916715873 
1168	 0.303345586484297 
1169	 0.303582753964665 
1170	 0.303733149318101 
1171	 0.303951401151414 
1172	 0.304240727828307 
1173	 0.304441218428065 
1174	 0.304585357517345 
1175	 0.304764838792289 
1176	 0.304925777656753 
1177	 0.305095762906215 
1178	 0.305299116794419 
1179	 0.305478380662306 
1180	 0.30557989903008 
1181	 0.305709134753303 
1182	 0.305873882588372 
1183	 0.306062097064816 
1184	 0.306329878992933 
1185	 0.306506174191663 
1186	 0.306669513237465 
1187	 0.306758138260547 
1188	 0.306937909077786 
1189	 0.307148147136105 
1190	 0.307340989444749 
1191	 0.30758914312153 
1192	 0.307784451865531 
1193	 0.307897366738682 
1194	 0.308081928766001 
1195	 0.308308915131934 
1196	 0.308497379878738 
1197	 0.308672260498939 
1198	 0.308902035700269 
1199	 0.309076019941982 
1200	 0.309262784276848 
1201	 0.30952334883247 
1202	 0.309809225181573 
1203	 0.310100896075856 
1204	 0.310372706020612 
1205	 0.310673873307703 
1206	 0.310962877102285 
1207	 0.311291643109337 
1208	 0.311655984562134 
1209	 0.312040465899843 
1210	 0.312442429548825 
1211	 0.312862726334308 
1212	 0.313290341872273 
1213	 0.313764558278028 
1214	 0.314286294661977 
1215	 0.314806505262924 
1216	 0.315388191510111 
1217	 0.315934260296768 
1218	 0.316462942944579 
1219	 0.316965529358707 
1220	 0.31752000740554 
1221	 0.318117602642544 
1222	 0.318760326188118 
1223	 0.319430891966637 
1224	 0.320059712470418 
1225	 0.320694746605273 
1226	 0.321280693978651 
1227	 0.321834392119456 
1228	 0.3223691558033 
1229	 0.322869141125924 
1230	 0.323370081612556 
1231	 0.323840917251545 
1232	 0.324339068272777 
1233	 0.3248564218986 
1234	 0.325334297549702 
1235	 0.325770483545097 
1236	 0.32626366975525 
1237	 0.326816463187479 
1238	 0.327285684611323 
1239	 0.327741381223332 
1240	 0.328200930814239 
1241	 0.328620640940237 
1242	 0.328959778594859 
1243	 0.329333183035994 
1244	 0.329735984605436 
1245	 0.330109000557362 
1246	 0.330435848380351 
1247	 0.330797693362504 
1248	 0.331200840694445 
1249	 0.33155197267523 
1250	 0.331879198242672 
1251	 0.332203722478526 
1252	 0.332470510929792 
1253	 0.332804057476736 
1254	 0.333204387691745 
1255	 0.333539273052071 
1256	 0.333863646021119 
1257	 0.334201877022291 
1258	 0.334506361706345 
1259	 0.334807557897809 
1260	 0.335141009865061 
1261	 0.335460254784799 
1262	 0.3357761450174 
1263	 0.336036709695031 
1264	 0.336311394630581 
1265	 0.336587626392182 
1266	 0.336858491675214 
1267	 0.337081448516611 
1268	 0.337387560764816 
1269	 0.337761576839537 
1270	 0.338064645814128 
1271	 0.338372536151717 
1272	 0.338680984353422 
1273	 0.338954269546339 
1274	 0.339228425705228 
1275	 0.339509311716982 
1276	 0.339805954360738 
1277	 0.340100418743471 
1278	 0.340374156498984 
1279	 0.340637713725957 
1280	 0.340941621057813 
1281	 0.341223632516653 
1282	 0.341537051231626 
1283	 0.341938248947513 
1284	 0.342295688706057 
1285	 0.342640082336218 
1286	 0.342966385391334 
1287	 0.343300051964312 
1288	 0.343624511992235 
1289	 0.343952862430995 
1290	 0.344273232413879 
1291	 0.344616043538989 
1292	 0.344981550040958 
1293	 0.345306654276085 
1294	 0.345639836530782 
1295	 0.345941954724266 
1296	 0.34619091188444 
1297	 0.346469431470536 
1298	 0.346763383792693 
1299	 0.347031181582403 
1300	 0.347296805648278 
1301	 0.34754353401981 
1302	 0.347724344575553 
1303	 0.347975852863653 
1304	 0.34828720719236 
1305	 0.348547435127765 
1306	 0.348863863502475 
1307	 0.349101536836909 
1308	 0.349254094378214 
1309	 0.349376748474555 
1310	 0.34956144297731 
1311	 0.349732624557603 
1312	 0.349936707874974 
1313	 0.350184525065972 
1314	 0.350428593364819 
1315	 0.350676240901488 
1316	 0.350922256177536 
1317	 0.351175589239549 
1318	 0.351452596042966 
1319	 0.351735032115205 
1320	 0.352017304307234 
1321	 0.352322174441538 
1322	 0.35262719814612 
1323	 0.352944693213402 
1324	 0.353223952599091 
1325	 0.353528460924653 
1326	 0.353771935047762 
1327	 0.353958054734497 
1328	 0.354126903355479 
1329	 0.354255347669639 
1330	 0.354386143753373 
1331	 0.354493927284607 
1332	 0.354596565322724 
1333	 0.354699080694453 
1334	 0.35478782795916 
1335	 0.354869098333507 
1336	 0.354934556528881 
1337	 0.355011898366035 
1338	 0.355071655263115 
1339	 0.355176029768962 
1340	 0.355268943071629 
1341	 0.35544677095553 
1342	 0.355669672264729 
1343	 0.355934237040444 
1344	 0.356314412493782 
1345	 0.356579580593569 
1346	 0.356832001950332 
1347	 0.357066901076739 
1348	 0.357246949686425 
1349	 0.357429657576077 
1350	 0.357619417634685 
1351	 0.357793425046289 
1352	 0.357984700912836 
1353	 0.358088092538335 
1354	 0.3581139665389 
1355	 0.358182637085918 
1356	 0.358164792119941 
1357	 0.358222927439022 
1358	 0.358423562321777 
1359	 0.358520678839768 
1360	 0.358578731530312 
1361	 0.358638398604428 
1362	 0.358637465192087 
1363	 0.358593788782258 
1364	 0.358555918498322 
1365	 0.35849342588124 
1366	 0.358479365050759 
1367	 0.358469818044907 
1368	 0.358455481046294 
1369	 0.358507177045307 
1370	 0.358454988707606 
1371	 0.358352057301421 
1372	 0.358231658006442 
1373	 0.358056070907107 
1374	 0.357894073116656 
1375	 0.357709091549237 
1376	 0.357532918871562 
1377	 0.357380297593467 
1378	 0.357171431957573 
1379	 0.356939462121517 
1380	 0.356690072208322 
1381	 0.356392627534497 
1382	 0.356106088277019 
1383	 0.355830300239755 
1384	 0.355519780184275 
1385	 0.355156530840973 
1386	 0.354834971636458 
1387	 0.354504880518019 
1388	 0.354202565441114 
1389	 0.353912625936236 
1390	 0.353672206233993 
1391	 0.353466256964919 
1392	 0.353262194041408 
1393	 0.353107717941128 
1394	 0.353042649599169 
1395	 0.353010596429263 
1396	 0.35304156010583 
1397	 0.353039636699057 
1398	 0.353122335865571 
1399	 0.353062070972861 
1400	 0.352959742619399 
1401	 0.352782341119377 
1402	 0.352514292860528 
1403	 0.35223784924151 
1404	 0.351928719827415 
1405	 0.35155565918993 
1406	 0.351143387083393 
1407	 0.35067902801219 
1408	 0.35010727607941 
1409	 0.34958643925468 
1410	 0.349034202745151 
1411	 0.348523167587317 
1412	 0.348011990189629 
1413	 0.347556822589511 
1414	 0.347145500010492 
1415	 0.346744249051129 
1416	 0.346369423991107 
1417	 0.346026823101358 
1418	 0.345689096561676 
1419	 0.345398220948183 
1420	 0.345202714251475 
1421	 0.344960695058761 
1422	 0.344691671566269 
1423	 0.344466297445918 
1424	 0.344284470786822 
1425	 0.344038870252329 
1426	 0.34378080285105 
1427	 0.343580302126734 
1428	 0.34335729829803 
1429	 0.343126665253189 
1430	 0.342934512739621 
1431	 0.342810415477713 
1432	 0.342637569475661 
1433	 0.342447440270623 
1434	 0.342266038909263 
1435	 0.342096422677809 
1436	 0.341897769757486 
1437	 0.341674809535255 
1438	 0.341474893937115 
1439	 0.341254498935309 
1440	 0.341081815737582 
1441	 0.340948315267528 
1442	 0.340792646479572 
1443	 0.340597697764081 
1444	 0.340524343149199 
1445	 0.340489769314568 
1446	 0.340494477959027 
1447	 0.340592555981131 
1448	 0.340705189445764 
1449	 0.34082014526305 
1450	 0.340991448359984 
1451	 0.341246819091504 
1452	 0.341491351845528 
1453	 0.341762605005355 
1454	 0.342033991876155 
1455	 0.342339780417394 
1456	 0.342609720422416 
1457	 0.342900972825976 
1458	 0.343127387223331 
1459	 0.343295384041748 
1460	 0.343465939158212 
1461	 0.343589515369606 
1462	 0.343712617787288 
1463	 0.343894384002368 
1464	 0.343972628489629 
1465	 0.344003552413664 
1466	 0.343990266597667 
1467	 0.343877977454116 
1468	 0.343655858984042 
1469	 0.343348391691255 
1470	 0.342992581433997 
1471	 0.342539479345658 
1472	 0.341992062741902 
1473	 0.341387035409389 
1474	 0.340699075687912 
1475	 0.339965596748073 
1476	 0.339162848885789 
1477	 0.338309923866644 
1478	 0.337421549099071 
1479	 0.336432372726302 
1480	 0.33538133438501 
1481	 0.334230333078445 
1482	 0.33294201526179 
1483	 0.331681693094606 
1484	 0.330358595441545 
1485	 0.329021327892336 
1486	 0.327659465321447 
1487	 0.326311958733832 
1488	 0.324877766880882 
1489	 0.323576215612893 
1490	 0.322261125397956 
1491	 0.321145266658204 
1492	 0.320091753432782 
1493	 0.319264199557286 
1494	 0.318645055255382 
1495	 0.318136063275053 
1496	 0.317801316119217 
1497	 0.317571624980604 
1498	 0.317421101157861 
1499	 0.317483123460352 
1500	 0.317588802515519 
1501	 0.318088642505914 
1502	 0.318764417551161 
1503	 0.319866336597949 
1504	 0.321242402007348 
1505	 0.323128865021753 
1506	 0.325606596517736 
1507	 0.328208810720456 
1508	 0.331467364667086 
1509	 0.334486755053792 
1510	 0.337763580985378 
1511	 0.340641539697589 
1512	 0.343475209318052 
1513	 0.345895219718178 
1514	 0.347889630752925 
1515	 0.3497232814309 
1516	 0.351175263275195 
1517	 0.352558228678629 
1518	 0.353686105289886 
1519	 0.354833058277134 
1520	 0.355896790729539 
1521	 0.356911038373105 
1522	 0.357913153153135 
1523	 0.358958760446107 
1524	 0.359958686889976 
1525	 0.360921746909481 
1526	 0.361911569787003 
1527	 0.362911320496208 
1528	 0.363878814524978 
1529	 0.364871093186976 
1530	 0.365743510948131 
1531	 0.366567525895138 
1532	 0.367325232519362 
1533	 0.367982767133547 
1534	 0.368657053319036 
1535	 0.369304568263176 
1536	 0.369909530206865 
1537	 0.37047373797295 
1538	 0.371040645241591 
1539	 0.371546242404125 
1540	 0.372126648715107 
1541	 0.372749868130947 
1542	 0.373336318942351 
1543	 0.373956246177242 
1544	 0.37451002725841 
1545	 0.375012229283375 
1546	 0.375524602801223 
1547	 0.376007038099089 
1548	 0.376509844814992 
1549	 0.377009443284583 
1550	 0.377524223565941 
1551	 0.378075136401377 
1552	 0.378563372865393 
1553	 0.37902041556865 
1554	 0.379498246931948 
1555	 0.379962191169224 
1556	 0.380402199907868 
1557	 0.380862713615436 
1558	 0.38128112272968 
1559	 0.381610785472519 
1560	 0.382021790478954 
1561	 0.382492550709273 
1562	 0.382896266818638 
1563	 0.383301639760422 
1564	 0.383687921197219 
1565	 0.384002891112466 
1566	 0.384371050448858 
1567	 0.384780459956674 
1568	 0.385160270952583 
1569	 0.385560929562457 
1570	 0.385907466509431 
1571	 0.386205068315846 
1572	 0.386521506901373 
1573	 0.386790064038129 
1574	 0.38711357929018 
1575	 0.387486989495709 
1576	 0.387833192700013 
1577	 0.388222106014528 
1578	 0.388540099672065 
1579	 0.388790591942096 
1580	 0.389074999035921 
1581	 0.389306450753917 
1582	 0.389606205008471 
1583	 0.389976131468692 
1584	 0.390314605468159 
1585	 0.390677630260666 
1586	 0.391016776957482 
1587	 0.39133461205415 
1588	 0.391648684670343 
1589	 0.391942959433471 
1590	 0.392259052470229 
1591	 0.392603684481867 
1592	 0.392896277328693 
1593	 0.393169623739165 
1594	 0.393449474017501 
1595	 0.393679259081193 
1596	 0.393942047034251 
1597	 0.394241472019815 
1598	 0.394525893965122 
1599	 0.394826476489266 
1600	 0.395091408809878 
1601	 0.395326426526048 
1602	 0.395575242823594 
1603	 0.395835677154588 
1604	 0.396040524933586 
1605	 0.396208678236426 
1606	 0.396404174224488 
1607	 0.396543578259347 
1608	 0.39673046114149 
1609	 0.396977784978254 
1610	 0.397211399387206 
1611	 0.397500915469662 
1612	 0.397693364151189 
1613	 0.397793473362831 
1614	 0.397966231205425 
1615	 0.398114241837999 
1616	 0.398271424536669 
1617	 0.398485833696563 
1618	 0.398697941466453 
1619	 0.398896682012379 
1620	 0.399077355019495 
1621	 0.399300805899365 
1622	 0.399479452926649 
1623	 0.399645519881796 
1624	 0.399733064716541 
1625	 0.399709954507545 
1626	 0.399763775488987 
1627	 0.399778970125271 
1628	 0.399828224691379 
1629	 0.399967288825458 
1630	 0.400081122129252 
1631	 0.40015724784467 
1632	 0.400264596147792 
1633	 0.400390210522674 
1634	 0.400540713662703 
1635	 0.400771340463415 
1636	 0.400898926537587 
1637	 0.400980840397542 
1638	 0.401072973067496 
1639	 0.401053996111511 
1640	 0.401138756528262 
1641	 0.401350126200393 
1642	 0.401459720540349 
1643	 0.401536625689857 
1644	 0.401632986797832 
1645	 0.401707135697149 
1646	 0.401758492742499 
1647	 0.401866433151419 
1648	 0.401879166086705 
1649	 0.401778716757298 
1650	 0.401706803136148 
1651	 0.401571850830121 
1652	 0.401500088925152 
1653	 0.401491751297154 
1654	 0.401434573929932 
1655	 0.401427980208145 
1656	 0.401319715776608 
1657	 0.40111770017832 
1658	 0.400924523790166 
1659	 0.400695667760903 
1660	 0.400441831434154 
1661	 0.400201125012975 
1662	 0.399877728582439 
1663	 0.399493579962046 
1664	 0.399065356124248 
1665	 0.398581983352823 
1666	 0.398047488953407 
1667	 0.397467404060724 
1668	 0.396842512984587 
1669	 0.396204672606241 
1670	 0.395432320606881 
1671	 0.394570878876369 
1672	 0.393616258457007 
1673	 0.392519073069921 
1674	 0.39141656052804 
1675	 0.390278527246779 
1676	 0.389085168737674 
1677	 0.38782913411519 
1678	 0.386527230088692 
1679	 0.385154739070847 
1680	 0.383753392148765 
1681	 0.382371281241638 
1682	 0.380824537973022 
1683	 0.379167454570326 
1684	 0.377497932351541 
1685	 0.375727382851544 
1686	 0.373909937053475 
1687	 0.372045707696057 
1688	 0.370120453069617 
1689	 0.36807671816187 
1690	 0.366073231425767 
1691	 0.364120404290227 
1692	 0.36208646329115 
1693	 0.360031692988114 
1694	 0.357865125030743 
1695	 0.355578895563572 
1696	 0.353296268789526 
1697	 0.350951992897815 
1698	 0.348584435435354 
1699	 0.346192785834379 
1700	 0.343859524496823 
1701	 0.341480015628983 
1702	 0.339165145618517 
1703	 0.336853306387159 
1704	 0.334683159579476 
1705	 0.332519367867242 
1706	 0.330576542935123 
1707	 0.328873638179044 
1708	 0.327184753953219 
1709	 0.325655144019475 
1710	 0.324285487934741 
1711	 0.322854291090924 
1712	 0.321552635855826 
1713	 0.320358508991602 
1714	 0.319198279208204 
1715	 0.318210047708428 
1716	 0.317257613297998 
1717	 0.316417093362856 
1718	 0.315736068536431 
1719	 0.315019206061973 
1720	 0.314309408238648 
1721	 0.313611052273665 
1722	 0.312912905476629 
1723	 0.312346922801601 
1724	 0.311981847028361 
1725	 0.311792808047683 
1726	 0.311710872610483 
1727	 0.311774118573549 
1728	 0.312023615323078 
1729	 0.312502017287979 
1730	 0.313192426772252 
1731	 0.313993477892474 
1732	 0.31496976511375 
1733	 0.315934231067542 
1734	 0.3169419822808 
1735	 0.318115603681302 
1736	 0.319234235062635 
1737	 0.320320208425461 
1738	 0.321284332319806 
1739	 0.322036110167387 
1740	 0.322615642465431 
1741	 0.323067239112923 
1742	 0.323352179194676 
1743	 0.323551583841763 
1744	 0.323592603896715 
1745	 0.32355921808002 
1746	 0.323392820179557 
1747	 0.323245339221634 
1748	 0.322976023833007 
1749	 0.322810694350481 
1750	 0.322595697651079 
1751	 0.322568333319657 
1752	 0.322716622350589 
1753	 0.322817492619174 
1754	 0.322979044924734 
1755	 0.32324872995536 
1756	 0.323455689254094 
1757	 0.323914259657413 
1758	 0.324576485817024 
1759	 0.325272197039488 
1760	 0.326070856922511 
1761	 0.327078696572044 
1762	 0.328170391593759 
1763	 0.329349596838777 
1764	 0.330649144112805 
1765	 0.331993182390967 
1766	 0.333439478862994 
1767	 0.334961701217141 
1768	 0.336486843195881 
1769	 0.337958637258001 
1770	 0.339386702146651 
1771	 0.340891330512463 
1772	 0.342423031512627 
1773	 0.34393817789752 
1774	 0.345416976801669 
1775	 0.346755625191452 
1776	 0.347988223848203 
1777	 0.349136350371053 
1778	 0.350110765967772 
1779	 0.350926099364155 
1780	 0.351729838699711 
1781	 0.352522764787677 
1782	 0.353338908186483 
1783	 0.354126589806224 
1784	 0.354799548487935 
1785	 0.355370504791675 
1786	 0.355939052710447 
1787	 0.356555850561141 
1788	 0.357019642291642 
1789	 0.357374660339615 
1790	 0.357725056099547 
1791	 0.357931108742027 
1792	 0.358198250536667 
1793	 0.358484386122228 
1794	 0.358748122627317 
1795	 0.359014647139414 
1796	 0.359278544593274 
1797	 0.359614381033221 
1798	 0.359900338790752 
1799	 0.360239770985762 
1800	 0.360661199152452 
1801	 0.364674025038255 
1802	 0.364963269811276 
1803	 0.365281118157055 
1804	 0.365547822173951 
1805	 0.365857988114612 
1806	 0.366176559010592 
1807	 0.366560804529167 
1808	 0.366901766163545 
1809	 0.367214842174259 
1810	 0.367549671830367 
1811	 0.367892507908623 
1812	 0.368230801476087 
1813	 0.368555519759593 
1814	 0.368941129872871 
1815	 0.369252960637012 
1816	 0.369557747895425 
1817	 0.369932352808923 
1818	 0.370348385233064 
1819	 0.370717507673807 
1820	 0.37111833840365 
1821	 0.371517446530778 
1822	 0.371879673951024 
1823	 0.37225415659193 
1824	 0.372661752585852 
1825	 0.373092308462546 
1826	 0.373479385309838 
1827	 0.373817030515918 
1828	 0.374210077578771 
1829	 0.374651310988032 
1830	 0.375010289355552 
1831	 0.375362849243946 
1832	 0.37569738639155 
1833	 0.375949258836044 
1834	 0.376268417631872 
1835	 0.376637930859086 
1836	 0.376959392545455 
1837	 0.377293946569784 
1838	 0.377611625714251 
1839	 0.377958448508147 
1840	 0.378315672374376 
1841	 0.378700267713933 
1842	 0.379124287241319 
1843	 0.379526128499655 
1844	 0.379949505196498 
1845	 0.380294030588657 
1846	 0.380623239029657 
1847	 0.380948203732664 
1848	 0.381207245758112 
1849	 0.381356721289697 
1850	 0.381619765068294 
1851	 0.381930078159816 
1852	 0.382179343593955 
1853	 0.382358317631706 
1854	 0.382505380229434 
1855	 0.382519690585568 
1856	 0.382433710709036 
1857	 0.382410420181973 
1858	 0.382452707952229 
1859	 0.382427772483902 
1860	 0.382393312013394 
1861	 0.382274534329667 
1862	 0.382140127955497 
1863	 0.381906115972304 
1864	 0.381522889682748 
1865	 0.381204928735732 
1866	 0.380807134104927 
1867	 0.380339462239791 
1868	 0.379999904640494 
1869	 0.379552543949564 
1870	 0.379010767079541 
1871	 0.378446509170457 
1872	 0.377801571449701 
1873	 0.377044234706144 
1874	 0.376230609918905 
1875	 0.375421104439744 
1876	 0.374488122520444 
1877	 0.373470552951766 
1878	 0.372319487938506 
1879	 0.371030595977585 
1880	 0.369689386468138 
1881	 0.368210556765964 
1882	 0.366561152560391 
1883	 0.364926358895413 
1884	 0.363208614642022 
1885	 0.361307039455253 
1886	 0.359476008405798 
1887	 0.35750485341376 
1888	 0.355418042887604 
1889	 0.353529296243492 
1890	 0.351627970081357 
1891	 0.349741012589348 
1892	 0.347980800018679 
1893	 0.34613232767065 
1894	 0.344212702464169 
1895	 0.342338928718099 
1896	 0.340451380850688 
1897	 0.338517479536304 
1898	 0.336741759451037 
1899	 0.334810225171428 
1900	 0.332890419733626 
1901	 0.331023783631402 
1902	 0.329033493759358 
1903	 0.327177089076959 
1904	 0.325363922297789 
1905	 0.32357696225843 
1906	 0.321853559506823 
1907	 0.320335956202571 
1908	 0.318833160068278 
1909	 0.317452464213811 
1910	 0.31620884394608 
1911	 0.314863788811906 
1912	 0.313621764744269 
1913	 0.31246005634943 
1914	 0.311286721160364 
1915	 0.310261408409071 
1916	 0.30938215119707 
1917	 0.308512187536046 
1918	 0.307708106301487 
1919	 0.307055360200212 
1920	 0.306335708294282 
1921	 0.305699112109945 
1922	 0.305182380226531 
1923	 0.304610223039447 
1924	 0.304139535788704 
1925	 0.30374059739963 
1926	 0.303342787171729 
1927	 0.302959822988024 
1928	 0.302628061343762 
1929	 0.302322515423645 
1930	 0.302056665663787 
1931	 0.301859894894772 
1932	 0.301655692490585 
1933	 0.30154217450406 
1934	 0.301520191589506 
1935	 0.301541469348104 
1936	 0.301603497717743 
1937	 0.301699803758072 
1938	 0.301862998799309 
1939	 0.302012807391949 
1940	 0.302157734920914 
1941	 0.302368966463036 
1942	 0.302630398482817 
1943	 0.302958267849324 
1944	 0.303396070986932 
1945	 0.303863551191322 
1946	 0.304346611701952 
1947	 0.304822385777994 
1948	 0.305305212960497 
1949	 0.305827885768256 
1950	 0.30641533237413 
1951	 0.307096802018577 
1952	 0.307766405600867 
1953	 0.308463645281861 
1954	 0.309185943832801 
1955	 0.309964211427048 
1956	 0.310665341276486 
1957	 0.311393634085148 
1958	 0.312153640496208 
1959	 0.31283078945376 
1960	 0.313486410683283 
1961	 0.31407349756945 
1962	 0.314580873701111 
1963	 0.315105916048521 
1964	 0.315624594131867 
1965	 0.316043685060736 
1966	 0.316430880705169 
1967	 0.316786453134296 
1968	 0.316997662297887 
1969	 0.317211228851605 
1970	 0.31746551302009 
1971	 0.317671487137683 
1972	 0.317854035343819 
1973	 0.318034268155102 
1974	 0.318278301260726 
1975	 0.318545452024214 
1976	 0.318833979398586 
1977	 0.319171007117065 
1978	 0.319535694954357 
1979	 0.319913920743259 
1980	 0.320251735800504 
1981	 0.320753575929696 
1982	 0.32138370747659 
1983	 0.322094251891076 
1984	 0.322931512618373 
1985	 0.323795027103041 
1986	 0.324724513825294 
1987	 0.325590643120195 
1988	 0.326446618129312 
1989	 0.327306100315242 
1990	 0.328128582665788 
1991	 0.328955263623195 
1992	 0.329793713814394 
1993	 0.330653547866202 
1994	 0.33143339728067 
1995	 0.332255488069901 
1996	 0.333068499216438 
1997	 0.333809953087817 
1998	 0.334553835760409 
1999	 0.335297657325512 
2000	 0.336000615926098 
2001	 0.33672041802576 
2002	 0.337324466446788 
2003	 0.337875700113821 
2004	 0.338364302031855 
2005	 0.33872553396592 
2006	 0.339099265691444 
2007	 0.339494722962424 
2008	 0.339766185952303 
2009	 0.339994196958116 
2010	 0.340162324896604 
2011	 0.340192078664476 
2012	 0.340193121973591 
2013	 0.340127961036287 
2014	 0.339998827036429 
2015	 0.33978596034507 
2016	 0.339511488784373 
2017	 0.339170239666512 
2018	 0.338680608766942 
2019	 0.338267312083947 
2020	 0.337892504212862 
2021	 0.337388053384749 
2022	 0.336864027647747 
2023	 0.336294773486762 
2024	 0.335686522445713 
2025	 0.335129941708849 
2026	 0.33458526596167 
2027	 0.334109049389533 
2028	 0.333602996947754 
2029	 0.333078323388894 
2030	 0.332577147215021 
2031	 0.332156689258349 
2032	 0.331644865798967 
2033	 0.331159890457582 
2034	 0.330518389838777 
2035	 0.32978541828481 
2036	 0.328959249316284 
2037	 0.328098182589154 
2038	 0.327084028190437 
2039	 0.326034036392807 
2040	 0.324828357482275 
2041	 0.323796864927962 
2042	 0.32258207345757 
2043	 0.321823226829864 
2044	 0.321225564986995 
2045	 0.320954345085297 
2046	 0.321081741040259 
2047	 0.321257147368963 
2048	 0.321792393388032 
2049	 0.322219443436838 
2050	 0.322779634329654 
2051	 0.323226866809579 
2052	 0.323639425865185 
2053	 0.323952127276312 
2054	 0.324190097174612 
2055	 0.324307867954962 
2056	 0.324428041461628 
2057	 0.324430964875409 
2058	 0.32455641058797 
2059	 0.324688251589454 
2060	 0.324852225139091 
2061	 0.325071273331288 
2062	 0.325313614276342 
2063	 0.325514919916398 
2064	 0.325838082562761 
2065	 0.3262584912998 
2066	 0.326708255539726 
2067	 0.327230335629905 
2068	 0.327777818999781 
2069	 0.328267448039159 
2070	 0.328781741319572 
2071	 0.329187809098232 
2072	 0.329527967121019 
2073	 0.329858875413818 
2074	 0.33013826271553 
2075	 0.330380481802209 
2076	 0.330638641074984 
2077	 0.330781295243707 
2078	 0.330791426267678 
2079	 0.330838277601848 
2080	 0.330841920438084 
2081	 0.330818267315107 
2082	 0.33076018559174 
2083	 0.330749090265771 
2084	 0.330717658387209 
2085	 0.330626641644657 
2086	 0.330480460851349 
2087	 0.330294597823199 
2088	 0.330123567463733 
2089	 0.32984771383137 
2090	 0.329671910969885 
2091	 0.329590280397981 
2092	 0.329446018994771 
2093	 0.329301597689741 
2094	 0.329137773662381 
2095	 0.328941958250672 
2096	 0.328762360408461 
2097	 0.328573785525797 
2098	 0.328389740547838 
2099	 0.328281168423938 
2100	 0.328087257787037 
2101	 0.327834873200786 
2102	 0.327561550606906 
2103	 0.327231397355578 
2104	 0.326774429886643 
2105	 0.326397811568818 
2106	 0.32604549241143 
2107	 0.325651501468634 
2108	 0.325270200006836 
2109	 0.324840804190169 
2110	 0.324356778650391 
2111	 0.323872048066717 
2112	 0.323338106316782 
2113	 0.322844526480122 
2114	 0.322386125151143 
2115	 0.321883116312872 
2116	 0.321376894165822 
2117	 0.320876513603417 
2118	 0.320310732350047 
2119	 0.319654569935582 
2120	 0.319088521052204 
2121	 0.318507687450067 
2122	 0.317989908025196 
2123	 0.317561756407706 
2124	 0.317067421929328 
2125	 0.316558987943565 
2126	 0.316065189085667 
2127	 0.315558349474933 
2128	 0.315066110892003 
2129	 0.314554925636526 
2130	 0.314123411322261 
2131	 0.313710253456815 
2132	 0.31332947458883 
2133	 0.312988695751967 
2134	 0.312751064281648 
2135	 0.312469191305852 
2136	 0.312221426187324 
2137	 0.31199657688944 
2138	 0.311810231702675 
2139	 0.311624633109444 
2140	 0.31142119306494 
2141	 0.311323071150774 
2142	 0.311300470110481 
2143	 0.311243493242013 
2144	 0.311283010347912 
2145	 0.311235102818507 
2146	 0.311058623712589 
2147	 0.311023054895248 
2148	 0.311041751483367 
2149	 0.311054006595375 
2150	 0.311126000895708 
2151	 0.311215994602564 
2152	 0.3113184725782 
2153	 0.311413854531979 
2154	 0.311531828953508 
2155	 0.311686543694301 
2156	 0.311764855133428 
2157	 0.311759838500125 
2158	 0.311857526859643 
2159	 0.311982078006583 
2160	 0.312084322867197 
2161	 0.312258695458889 
2162	 0.312333868611991 
2163	 0.312316577807228 
2164	 0.312354834452669 
2165	 0.312391039587201 
2166	 0.312414930666536 
2167	 0.31249440640969 
2168	 0.312479897417648 
2169	 0.312347391540657 
2170	 0.312303435975602 
2171	 0.312229599624406 
2172	 0.312205118402101 
2173	 0.312263076436757 
2174	 0.312338394126901 
2175	 0.312279851955875 
2176	 0.312291174562796 
2177	 0.312318609080499 
2178	 0.312351144029458 
2179	 0.312333470215456 
2180	 0.312357355434417 
2181	 0.312316608472335 
2182	 0.31215601599404 
2183	 0.312104411591106 
2184	 0.312144456256674 
2185	 0.312077122257417 
2186	 0.311987804179461 
2187	 0.311875760495408 
2188	 0.311688427823648 
2189	 0.311513620321859 
2190	 0.311360762341168 
2191	 0.311175278765356 
2192	 0.310966206237271 
2193	 0.310732940866528 
2194	 0.310538069612308 
2195	 0.310222034987048 
2196	 0.30984356272224 
2197	 0.309382780828093 
2198	 0.308852929089455 
2199	 0.308208123477388 
2200	 0.30761197896292 
2201	 0.307040132502388 
2202	 0.306294123624775 
2203	 0.305535200576634 
2204	 0.304571575470512 
2205	 0.303392130449257 
2206	 0.302232145520106 
2207	 0.300899477699847 
2208	 0.299683812910258 
2209	 0.29836614346039 
2210	 0.297284045164644 
2211	 0.296170939468558 
2212	 0.295476912832564 
2213	 0.29503989172897 
2214	 0.294834690884603 
2215	 0.29506362141642 
2216	 0.295256763862093 
2217	 0.295693879834733 
2218	 0.296044086272439 
2219	 0.296568250722423 
2220	 0.296849495339392 
2221	 0.297038411916715 
2222	 0.297109577603447 
2223	 0.297016017657911 
2224	 0.296855501094682 
2225	 0.296563890475391 
2226	 0.296046632429355 
2227	 0.29538662129819 
2228	 0.294505461319468 
2229	 0.293523251024373 
2230	 0.29234510718329 
2231	 0.291200914239776 
2232	 0.289918558008993 
2233	 0.288647435285453 
2234	 0.287482004848067 
2235	 0.286017642914593 
2236	 0.284405345440394 
2237	 0.282682247751438 
2238	 0.280723735641598 
2239	 0.278741579892592 
2240	 0.276704983765554 
2241	 0.27451036781397 
2242	 0.272263561066138 
2243	 0.269800292346272 
2244	 0.267128241279743 
2245	 0.264383989927151 
2246	 0.2612622266077 
2247	 0.258363027977118 
2248	 0.255569800986945 
2249	 0.252664471180967 
2250	 0.249759077643929 
2251	 0.246972209062225 
2252	 0.24384872784314 
2253	 0.240810138199726 
2254	 0.237804257918316 
2255	 0.234697224673204 
2256	 0.23178879019247 
2257	 0.228840749538545 
2258	 0.225964698989637 
2259	 0.223231994329627 
2260	 0.220301845975559 
2261	 0.217339796609204 
2262	 0.214346843932359 
2263	 0.211250889014353 
2264	 0.208159292897355 
2265	 0.20522784417871 
2266	 0.201841906722119 
2267	 0.198422764869443 
2268	 0.194466110219877 
2269	 0.190045266959584 
2270	 0.185473952849476 
2271	 0.180495356749243 
2272	 0.175342763880383 
2273	 0.170023994162601 
2274	 0.164395019630991 
2275	 0.158401301525578 
2276	 0.152315232197744 
2277	 0.145534891630336 
2278	 0.139469837190517 
2279	 0.133101765312204 
2280	 0.127767044125496 
2281	 0.123147598513986 
2282	 0.119108760391325 
2283	 0.115685339448294 
2284	 0.11308163093336 
2285	 0.111005038456938 
2286	 0.109772613123788 
2287	 0.109113197405316 
2288	 0.109034188249813 
2289	 0.109448538000213 
2290	 0.110271100450744 
2291	 0.111642479326723 
2292	 0.113337967012648 
2293	 0.115335271724067 
2294	 0.117415361114202 
2295	 0.119543661664293 
2296	 0.121713617774162 
2297	 0.123773647290934 
2298	 0.125851829121562 
2299	 0.12776088654647 
2300	 0.129590180109436 
2301	 0.131247756159091 
2302	 0.132699998336774 
2303	 0.134194585808988 
2304	 0.135567569327163 
2305	 0.136886813682998 
2306	 0.138076428322802 
2307	 0.139517458027998 
2308	 0.140961253290631 
2309	 0.142545850130814 
2310	 0.144427211726047 
2311	 0.146114800558827 
2312	 0.147681923378872 
2313	 0.149370457557698 
2314	 0.151223309820375 
2315	 0.152851624822299 
2316	 0.154524195732702 
2317	 0.15593347466339 
2318	 0.157203246671218 
2319	 0.158142959465938 
2320	 0.158828660354807 
2321	 0.159338950302332 
2322	 0.159637651431862 
2323	 0.159533266864971 
2324	 0.159338317956466 
2325	 0.15852422085458 
2326	 0.157092663191075 
2327	 0.155468407583449 
2328	 0.153316936047699 
2329	 0.151021402067995 
2330	 0.148662041234239 
2331	 0.145598628329957 
2332	 0.142324424589712 
2333	 0.138571380398254 
2334	 0.13413430750752 
2335	 0.129639895862381 
2336	 0.124805553060977 
2337	 0.119934185869065 
2338	 0.115539288130351 
2339	 0.110982782317563 
2340	 0.106710915154576 
2341	 0.102806357443128 
2342	 9.90277536555053E-02 
2343	 9.59768418867762E-02 
2344	 0.093126385711936 
2345	 9.08489637864497E-02 
2346	 8.91732187400151E-02 
2347	 8.76982698926173E-02 
2348	 8.68566376752621E-02 
2349	 8.64983085260111E-02 
2350	 8.61599173846766E-02 
2351	 8.58337758370328E-02 
2352	 8.55261278265857E-02 
2353	 8.48914985986902E-02 
2354	 8.44368986877398E-02 
2355	 8.44396921769536E-02 
2356	 8.49258298780185E-02 
2357	 8.60706596988533E-02 
2358	 8.79896032919016E-02 
2359	 9.06216912434898E-02 
2360	 9.40884397732716E-02 
2361	 9.84784432675648E-02 
2362	 0.102981220094106 
2363	 0.10809585191373 
2364	 0.113127240766613 
2365	 0.117973410932775 
2366	 0.123158006249073 
2367	 0.127564075924414 
2368	 0.131511961333222 
2369	 0.134987847583318 
2370	 0.137776039213983 
2371	 0.140267969457943 
2372	 0.142603886495631 
2373	 0.14474050210381 
2374	 0.146603295978963 
2375	 0.14820669397424 
2376	 0.149206868688107 
2377	 0.149640493712933 
2378	 0.149698594325169 
2379	 0.149536361728218 
2380	 0.149694710441055 
2381	 0.150004066971663 
2382	 0.150359627392811 
2383	 0.15101385658827 
2384	 0.151396255505576 
2385	 0.151551545360355 
2386	 0.152086138274069 
2387	 0.152816315717971 
2388	 0.153510994671562 
2389	 0.154325700674419 
2390	 0.155203499403625 
2391	 0.156163615149339 
2392	 0.156954109151151 
2393	 0.157892323447089 
2394	 0.158463851886456 
2395	 0.158572688368488 
2396	 0.158931558087677 
2397	 0.159227588157526 
2398	 0.159711415938008 
2399	 0.160382126336598 
2400	 0.160956203215093 
2401	 0.161508724902816 
2402	 0.162305156813043 
2403	 0.163125448416328 
2404	 0.164193604937834 
2405	 0.165465502574579 
2406	 0.166424828287936 
2407	 0.166954225419265 
2408	 0.167125309326603 
2409	 0.166852336145464 
2410	 0.166735971741629 
2411	 0.167008198043628 
2412	 0.167703197527073 
2413	 0.168693405325175 
2414	 0.169289146056804 
2415	 0.169478213707448 
2416	 0.169467456790491 
2417	 0.169265121208875 
2418	 0.169165198459837 
2419	 0.169438963089445 
2420	 0.169668142759228 
2421	 0.169761819364413 
2422	 0.170407891137583 
2423	 0.170936580851773 
2424	 0.171262195495931 
2425	 0.172024185173231 
2426	 0.172550892964801 
2427	 0.172394436359413 
2428	 0.172152901504479 
2429	 0.172215292368027 
2430	 0.171957938277779 
2431	 0.172036194196137 
2432	 0.17238730796307 
2433	 0.172127478976048 
2434	 0.172127710763418 
2435	 0.172306203343857 
2436	 0.172373293973537 
2437	 0.172671598121064 
2438	 0.172492339342146 
2439	 0.172075549373439 
2440	 0.17241918446381 
2441	 0.172695107033194 
2442	 0.172721301510041 
2443	 0.1727658452763 
2444	 0.172322572911499 
2445	 0.171609068668022 
2446	 0.171032999403981 
2447	 0.171022251846238 
2448	 0.170865986554241 
2449	 0.170911373014134 
2450	 0.171370736056518 
2451	 0.171086203288205 
2452	 0.170577625912047 
2453	 0.169722892991143 
2454	 0.169167935269486 
2455	 0.169432673453796 
2456	 0.169619164510083 
2457	 0.169726041423945 
2458	 0.169131155864042 
2459	 0.168303633558699 
2460	 0.168236718128583 
2461	 0.168041063882919 
2462	 0.167442669387661 
2463	 0.166715947803467 
2464	 0.165881281559325 
2465	 0.165149613067062 
2466	 0.165209578747691 
2467	 0.16593777213675 
2468	 0.165904458861715 
2469	 0.165937748380939 
2470	 0.166481857572098 
2471	 0.166029279803322 
2472	 0.16530840976597 
2473	 0.165051228878239 
2474	 0.164628563756415 
2475	 0.164657881541384 
2476	 0.165072822266508 
2477	 0.165069544002624 
2478	 0.164924693906026 
2479	 0.16482130936968 
2480	 0.164227110518437 
2481	 0.163619683215282 
2482	 0.162627908677242 
2483	 0.161761769274051 
2484	 0.161208249959554 
2485	 0.160502344931683 
2486	 0.161071445643061 
2487	 0.161730048986883 
2488	 0.162675561157414 
2489	 0.164131097640209 
2490	 0.164325511061354 
2491	 0.164597039492489 
2492	 0.16530009987703 
2493	 0.165797213802601 
2494	 0.165850766774994 
2495	 0.166063822535112 
2496	 0.166056215935238 
2497	 0.164829315408491 
2498	 0.165226122325586 
2499	 0.166251888279226 
2500	 0.166092438684492 
