Wavelength	Tablay400010.asd
350	 0.239746814670051 
351	 0.237771545914349 
352	 0.22864544479683 
353	 0.217949858568192 
354	 0.204904781513653 
355	 0.194684661355615 
356	 0.192975361327225 
357	 0.197158360260146 
358	 0.177361861653176 
359	 0.173769484477264 
360	 0.184335778478326 
361	 0.183654211360266 
362	 0.157612190039051 
363	 0.152947076464123 
364	 0.178367822640872 
365	 0.183945107768476 
366	 0.165135779117787 
367	 0.146112732953451 
368	 0.146780296178679 
369	 0.155196292354374 
370	 0.145769914996339 
371	 0.138256895035 
372	 0.166912341188882 
373	 0.15392267930663 
374	 0.142575914713872 
375	 0.150021407450527 
376	 0.139181256024252 
377	 0.138203369067609 
378	 0.138279108968784 
379	 0.13002243218721 
380	 0.133774081355364 
381	 0.127212705092217 
382	 0.117228607479329 
383	 0.123913020625054 
384	 0.123931445004118 
385	 0.114156160086571 
386	 0.103435390779126 
387	 0.114616940644318 
388	 0.115356631660157 
389	 0.11393606090706 
390	 0.120159363367338 
391	 0.1064456583316 
392	 0.102978370726314 
393	 0.110233601773819 
394	 0.109733516696392 
395	 0.105490775599133 
396	 0.101446925832274 
397	 9.89551624900415E-02 
398	 0.095048065152868 
399	 9.55669225943959E-02 
400	 0.097238553782462 
401	 9.58344702650343E-02 
402	 9.42598127428877E-02 
403	 9.01325266797047E-02 
404	 8.78098865923751E-02 
405	 9.46641759968338E-02 
406	 9.18779796226281E-02 
407	 8.72780539690049E-02 
408	 0.086779194180667 
409	 8.52778208872309E-02 
410	 8.54060173682672E-02 
411	 8.70989488778843E-02 
412	 8.87890050659413E-02 
413	 0.08603162353224 
414	 0.083559492170537 
415	 8.35192025422974E-02 
416	 8.50953108873262E-02 
417	 0.083188439010178 
418	 7.99824441287397E-02 
419	 7.82221928272849E-02 
420	 7.94578696571093E-02 
421	 7.73606435249355E-02 
422	 7.51739878771037E-02 
423	 7.83027961896693E-02 
424	 8.01151435067708E-02 
425	 7.95408785644905E-02 
426	 7.75194061251362E-02 
427	 7.65357765862283E-02 
428	 7.64714955941167E-02 
429	 7.66576477287893E-02 
430	 0.076496748014149 
431	 7.60303042785803E-02 
432	 7.58164087383925E-02 
433	 7.62951448944039E-02 
434	 7.76543931943685E-02 
435	 7.89397698662149E-02 
436	 0.079275819032068 
437	 7.83625527584777E-02 
438	 7.64614347636701E-02 
439	 7.72014811931591E-02 
440	 7.81410742876845E-02 
441	 7.69010608492702E-02 
442	 7.91592972867912E-02 
443	 7.90390036607671E-02 
444	 7.71711825189481E-02 
445	 7.89644635849891E-02 
446	 8.03308040790222E-02 
447	 8.12414038583672E-02 
448	 8.17327544327943E-02 
449	 8.02599701808625E-02 
450	 0.080741443539507 
451	 0.082734978121234 
452	 8.40945583495049E-02 
453	 8.36269658085893E-02 
454	 8.32775779889893E-02 
455	 8.41746362173354E-02 
456	 8.62703662413834E-02 
457	 8.72099463110379E-02 
458	 8.76729901692851E-02 
459	 8.86454234113771E-02 
460	 8.99386315514333E-02 
461	 9.09144949858905E-02 
462	 9.16962057794837E-02 
463	 9.27909370690732E-02 
464	 0.094131593232249 
465	 9.51418440312504E-02 
466	 9.57837443897926E-02 
467	 9.68428648506327E-02 
468	 9.88802011706384E-02 
469	 0.100648583768462 
470	 0.101192869913652 
471	 0.102813106442541 
472	 0.10494527581175 
473	 0.106835761660271 
474	 0.107816138046951 
475	 0.109622918485724 
476	 0.111671916480136 
477	 0.113458840928754 
478	 0.115489233859148 
479	 0.117269248657584 
480	 0.119069013463484 
481	 0.121282054391207 
482	 0.123223908178908 
483	 0.125054722700643 
484	 0.1270709706911 
485	 0.129620820084497 
486	 0.13187772574023 
487	 0.13383062776492 
488	 0.135694302282636 
489	 0.137745630822856 
490	 0.13977875482922 
491	 0.141927674505565 
492	 0.144410206961198 
493	 0.146376388282868 
494	 0.148422103057354 
495	 0.150656254007632 
496	 0.152107942958105 
497	 0.153872999168696 
498	 0.155923284511238 
499	 0.1579020109415 
500	 0.159613659243303 
501	 0.161321788765554 
502	 0.163178154522646 
503	 0.165193712200896 
504	 0.166929416515132 
505	 0.168593649095367 
506	 0.170396589435904 
507	 0.172316491334274 
508	 0.173910351752903 
509	 0.17536793171516 
510	 0.177061200352203 
511	 0.178513761876967 
512	 0.179939101449494 
513	 0.181494019897404 
514	 0.183194525485976 
515	 0.184817290059708 
516	 0.186272406380306 
517	 0.187593473163107 
518	 0.189071357868312 
519	 0.190478160008199 
520	 0.191821003049 
521	 0.193257144851389 
522	 0.194653022994296 
523	 0.196139408676642 
524	 0.197707804801665 
525	 0.199009094827623 
526	 0.200356698330665 
527	 0.201789638200303 
528	 0.20324487082807 
529	 0.204693185366004 
530	 0.205863963654693 
531	 0.206915800605206 
532	 0.208430089360117 
533	 0.209849096430261 
534	 0.211096472103399 
535	 0.212247948833872 
536	 0.213489303071041 
537	 0.21475667942598 
538	 0.216031505381328 
539	 0.217311725044236 
540	 0.218517941099594 
541	 0.219692286217191 
542	 0.220862952648713 
543	 0.222009388189806 
544	 0.223159329627628 
545	 0.224307715418295 
546	 0.225451394380755 
547	 0.226632115949003 
548	 0.227912007315555 
549	 0.229249836758629 
550	 0.230520799556826 
551	 0.231834819225305 
552	 0.233107350526232 
553	 0.234296851345329 
554	 0.235553680796015 
555	 0.236780271551689 
556	 0.237902870848172 
557	 0.238889158682655 
558	 0.239939933342456 
559	 0.240883857644356 
560	 0.24173930750931 
561	 0.242835083752426 
562	 0.243697960411104 
563	 0.244459518566994 
564	 0.245306550899865 
565	 0.245963148745591 
566	 0.246624637896863 
567	 0.247389007774597 
568	 0.248272416103818 
569	 0.249308258222941 
570	 0.250360024287804 
571	 0.251349071004941 
572	 0.252368396660055 
573	 0.253404240765537 
574	 0.254309106959762 
575	 0.254951624595749 
576	 0.255601634485243 
577	 0.256220082477337 
578	 0.256787838555501 
579	 0.257331397655679 
580	 0.257870092167837 
581	 0.25839245680938 
582	 0.25889770937468 
583	 0.259432636977017 
584	 0.260042114420262 
585	 0.260626502374835 
586	 0.261043774502906 
587	 0.261593290600415 
588	 0.262148483575997 
589	 0.262669253963045 
590	 0.26334038968419 
591	 0.263994440680466 
592	 0.264674298979982 
593	 0.265456718193417 
594	 0.266292135339474 
595	 0.26705337157213 
596	 0.267717401532427 
597	 0.268359106326554 
598	 0.269060961791612 
599	 0.269668219193843 
600	 0.270098045534479 
601	 0.270529010269626 
602	 0.270964359700141 
603	 0.271376171015079 
604	 0.271737718345385 
605	 0.272181989641771 
606	 0.27256870410875 
607	 0.272885973253094 
608	 0.273303795591321 
609	 0.273633668120978 
610	 0.273922945966197 
611	 0.274246624588282 
612	 0.274551270348651 
613	 0.274983166141153 
614	 0.275460052992245 
615	 0.275776550340888 
616	 0.276086574388584 
617	 0.276453565671021 
618	 0.27686340310758 
619	 0.277196963761021 
620	 0.277366738756553 
621	 0.277589764640073 
622	 0.278058506933755 
623	 0.278321327380063 
624	 0.278564184892978 
625	 0.278878655871808 
626	 0.279235868896688 
627	 0.27950863532821 
628	 0.279707201809724 
629	 0.279902953480263 
630	 0.280261241448733 
631	 0.280504848947135 
632	 0.280653080818749 
633	 0.280851872870213 
634	 0.281100456667595 
635	 0.281327834625067 
636	 0.281531307080513 
637	 0.28179929823781 
638	 0.281934060238278 
639	 0.282077793886873 
640	 0.282348110042881 
641	 0.282500085722481 
642	 0.28266320713757 
643	 0.28286135668688 
644	 0.283046880399602 
645	 0.283156132104977 
646	 0.28326942458117 
647	 0.283443564746034 
648	 0.283675960206864 
649	 0.283764905875624 
650	 0.283820939452799 
651	 0.283999843195724 
652	 0.284214459685633 
653	 0.284297172351005 
654	 0.28430670152088 
655	 0.284468766936278 
656	 0.284651618151374 
657	 0.284730240419192 
658	 0.284709892579621 
659	 0.284872234139853 
660	 0.284979301169732 
661	 0.285032736329188 
662	 0.285107163235117 
663	 0.285164582353911 
664	 0.285252877529678 
665	 0.285376338184201 
666	 0.285490319695842 
667	 0.285546152034256 
668	 0.285593830564731 
669	 0.285666387215022 
670	 0.285691346973896 
671	 0.285772475154643 
672	 0.285862621478645 
673	 0.285864562330711 
674	 0.285843798938871 
675	 0.285867369990342 
676	 0.285940744352365 
677	 0.285997201842173 
678	 0.286064671271496 
679	 0.286079385660707 
680	 0.286008233915743 
681	 0.285945504887624 
682	 0.286025327693717 
683	 0.286167606453866 
684	 0.286182317263868 
685	 0.286055912503197 
686	 0.285978767227933 
687	 0.286050720148273 
688	 0.286218814080977 
689	 0.286241697380143 
690	 0.286153433005597 
691	 0.28607870080134 
692	 0.286157421272737 
693	 0.286193477675753 
694	 0.286187772216867 
695	 0.286250551924836 
696	 0.286236074653401 
697	 0.286193795529778 
698	 0.286179710149951 
699	 0.28622334884457 
700	 0.286251142881321 
701	 0.28625362466727 
702	 0.286233305718104 
703	 0.286142212263547 
704	 0.286148653396496 
705	 0.286239071828525 
706	 0.286272835771102 
707	 0.286227583352201 
708	 0.286185474819964 
709	 0.286181904902157 
710	 0.286148628229545 
711	 0.286131297224022 
712	 0.286162233194834 
713	 0.286228477831032 
714	 0.286159096159098 
715	 0.286096174366388 
716	 0.286111474388896 
717	 0.286199591888211 
718	 0.286184831796681 
719	 0.286145005246497 
720	 0.286138712329237 
721	 0.286124161924311 
722	 0.286229898178757 
723	 0.286339962496157 
724	 0.286327014755899 
725	 0.286327485315972 
726	 0.28634313015286 
727	 0.286376769494402 
728	 0.286434488404547 
729	 0.286560630349438 
730	 0.286612014726504 
731	 0.286561083695575 
732	 0.286600004026084 
733	 0.286736559825467 
734	 0.286883984101852 
735	 0.286961074798171 
736	 0.28704808864849 
737	 0.287043928745291 
738	 0.286994024896818 
739	 0.287027998293136 
740	 0.287078407504546 
741	 0.287133644063656 
742	 0.287176617721502 
743	 0.287173967622103 
744	 0.287173947966689 
745	 0.287228962351529 
746	 0.287346954215461 
747	 0.287396154184053 
748	 0.287428283890502 
749	 0.287493991718227 
750	 0.287623104462243 
751	 0.287700223411913 
752	 0.287755598135504 
753	 0.287841584758288 
754	 0.288014586222623 
755	 0.288166288729129 
756	 0.288288478423441 
757	 0.288404425228514 
758	 0.288550227931856 
759	 0.28870452993298 
760	 0.288828715854292 
761	 0.288908855519669 
762	 0.289135811615449 
763	 0.289344585143789 
764	 0.2894667334399 
765	 0.289570700375336 
766	 0.289746422143434 
767	 0.289943120972556 
768	 0.290104854061971 
769	 0.290231336365695 
770	 0.290363866237907 
771	 0.290516309744302 
772	 0.290689728266973 
773	 0.290883847067455 
774	 0.29109002148837 
775	 0.291285988698615 
776	 0.291446222951471 
777	 0.291630608034276 
778	 0.291795135110803 
779	 0.291931883838074 
780	 0.29211757945768 
781	 0.292301700525177 
782	 0.292495908894932 
783	 0.292703886399406 
784	 0.292835105562286 
785	 0.293019542432201 
786	 0.293211882744402 
787	 0.293296899242864 
788	 0.293451725242238 
789	 0.293625139109878 
790	 0.293783481566458 
791	 0.293940000315958 
792	 0.294078240803889 
793	 0.294247612070243 
794	 0.294464388541237 
795	 0.294635599434672 
796	 0.294788732805869 
797	 0.294963918934581 
798	 0.295179637878871 
799	 0.29531954763836 
800	 0.295463609724841 
801	 0.295664275715706 
802	 0.295931399560677 
803	 0.296161628555893 
804	 0.296355039052452 
805	 0.29653112162822 
806	 0.296713466056606 
807	 0.296918610517424 
808	 0.297110803520262 
809	 0.297275450342656 
810	 0.297502166553999 
811	 0.297729569802208 
812	 0.297916895243901 
813	 0.298055040825343 
814	 0.298251951819399 
815	 0.298399843259604 
816	 0.298522229714051 
817	 0.29874412732057 
818	 0.298807953670208 
819	 0.298906733169027 
820	 0.29912608065955 
821	 0.299267238628524 
822	 0.29939967494318 
823	 0.299511610487341 
824	 0.299590429882355 
825	 0.299673752946432 
826	 0.299767221692729 
827	 0.299859536814631 
828	 0.299936537754757 
829	 0.300020974860566 
830	 0.300118568167319 
831	 0.300199550173192 
832	 0.300218893724437 
833	 0.300306398915699 
834	 0.300372536424579 
835	 0.300392014969513 
836	 0.300485150404934 
837	 0.30056217041244 
838	 0.300609537314949 
839	 0.300646874723463 
840	 0.300735307423971 
841	 0.300781308761287 
842	 0.300806395367345 
843	 0.3008627353203 
844	 0.300898675919879 
845	 0.300944304810455 
846	 0.300983477837949 
847	 0.300979817672469 
848	 0.301041829269166 
849	 0.301132584408357 
850	 0.301230147028823 
851	 0.301351645867583 
852	 0.301442404905152 
853	 0.301531226866615 
854	 0.301634068185648 
855	 0.30170063538427 
856	 0.301778600359099 
857	 0.301836098214747 
858	 0.301856528037603 
859	 0.301973290594409 
860	 0.302036011631773 
861	 0.302058741766252 
862	 0.30212024435564 
863	 0.302117480612731 
864	 0.302123492322057 
865	 0.302177496259763 
866	 0.302264262289252 
867	 0.30224897969688 
868	 0.302179558660797 
869	 0.302136631029787 
870	 0.302197229871918 
871	 0.30222402363343 
872	 0.302199014355677 
873	 0.3021544469645 
874	 0.302168060580323 
875	 0.302161247695335 
876	 0.302143973341799 
877	 0.302128926697931 
878	 0.302029716893047 
879	 0.301982100754085 
880	 0.301966232332085 
881	 0.301912205449474 
882	 0.301948544948939 
883	 0.301902924025773 
884	 0.30177230644287 
885	 0.301687772970002 
886	 0.301622673051175 
887	 0.301639870252454 
888	 0.301696385248716 
889	 0.301636449094207 
890	 0.301591167683115 
891	 0.30151574430113 
892	 0.301407030355177 
893	 0.301378220005901 
894	 0.30144104445576 
895	 0.301474549935024 
896	 0.301408746647688 
897	 0.301395026125152 
898	 0.301346318502568 
899	 0.301341689567968 
900	 0.301452020867122 
901	 0.301517995788296 
902	 0.301551265573628 
903	 0.30155651091495 
904	 0.301548360706459 
905	 0.301589391130653 
906	 0.301679531629705 
907	 0.301777241962699 
908	 0.301830456433753 
909	 0.301913726198009 
910	 0.302043098488719 
911	 0.302147298523793 
912	 0.302107979190037 
913	 0.302201813718386 
914	 0.302311468049195 
915	 0.302374455675402 
916	 0.302482610243328 
917	 0.302557461329694 
918	 0.302583288319383 
919	 0.302574778560764 
920	 0.302573390871233 
921	 0.302623770964654 
922	 0.302717317781197 
923	 0.302814428510599 
924	 0.302838153276825 
925	 0.302956587405065 
926	 0.303088712263944 
927	 0.303129247349837 
928	 0.303188337002543 
929	 0.303201971631084 
930	 0.303218326184049 
931	 0.303302484045056 
932	 0.303395486737659 
933	 0.303376399732475 
934	 0.30335185416059 
935	 0.303490884080616 
936	 0.303579729959176 
937	 0.303662706327524 
938	 0.303704468068874 
939	 0.303653393626176 
940	 0.303768924170246 
941	 0.303910923531663 
942	 0.30399928112848 
943	 0.304041927594968 
944	 0.304034082322962 
945	 0.303993583583243 
946	 0.303989710621722 
947	 0.304116931903796 
948	 0.304234323905247 
949	 0.304223909076087 
950	 0.304165491945092 
951	 0.304337644698772 
952	 0.304401754922939 
953	 0.304390690339372 
954	 0.304414246506331 
955	 0.304577067637734 
956	 0.304706353733243 
957	 0.304721853018159 
958	 0.304673194582715 
959	 0.304776537771177 
960	 0.30489802526353 
961	 0.305045651487931 
962	 0.305210102861268 
963	 0.305294348857117 
964	 0.305277320161973 
965	 0.305338852619102 
966	 0.305542821877965 
967	 0.305577048245699 
968	 0.305803323108819 
969	 0.306083640735415 
970	 0.306245479120092 
971	 0.306406351353951 
972	 0.306570140799028 
973	 0.306608093536752 
974	 0.306519737002457 
975	 0.306759492204001 
976	 0.306984098834732 
977	 0.307213906278217 
978	 0.307489067392379 
979	 0.307545334783562 
980	 0.307660551048704 
981	 0.307785207615979 
982	 0.307837172196258 
983	 0.308005294042852 
984	 0.308146995329881 
985	 0.308341669938817 
986	 0.308605631404964 
987	 0.308480000879586 
988	 0.308566172493194 
989	 0.308776011497096 
990	 0.308864942026169 
991	 0.309003454464263 
992	 0.309010424615296 
993	 0.309056583726757 
994	 0.309270056081187 
995	 0.309179750199088 
996	 0.309334479326026 
997	 0.309522688157269 
998	 0.309446146717256 
999	 0.309487111862685 
1000	 0.309532711381499 
1001	 0.292398219671131 
1002	 0.292287095432665 
1003	 0.292168522290642 
1004	 0.292115924349089 
1005	 0.292048778478317 
1006	 0.292076454741103 
1007	 0.292247449812082 
1008	 0.292247841491532 
1009	 0.292203319434434 
1010	 0.292198528549426 
1011	 0.29212744764337 
1012	 0.292071697618772 
1013	 0.292066498837992 
1014	 0.292042988428664 
1015	 0.291947528723435 
1016	 0.291936613592196 
1017	 0.291962135767438 
1018	 0.291917178967909 
1019	 0.291893087541663 
1020	 0.291926365407459 
1021	 0.291933586400663 
1022	 0.291950191773625 
1023	 0.291985273643359 
1024	 0.291984022615156 
1025	 0.292032794996816 
1026	 0.292149767502339 
1027	 0.29222986013319 
1028	 0.292271312053017 
1029	 0.292413497162931 
1030	 0.292633964547271 
1031	 0.292762982003697 
1032	 0.292845172026693 
1033	 0.29293520487065 
1034	 0.292997696780083 
1035	 0.293100080429886 
1036	 0.293222966337752 
1037	 0.293472547675067 
1038	 0.293598288827087 
1039	 0.293654802182166 
1040	 0.293725821659583 
1041	 0.293760714045899 
1042	 0.293844233656676 
1043	 0.293949058696775 
1044	 0.294013996213222 
1045	 0.294153452894038 
1046	 0.294297130752394 
1047	 0.294360692903766 
1048	 0.294434996905694 
1049	 0.294461740542931 
1050	 0.29445751338302 
1051	 0.294493508417082 
1052	 0.294517972052777 
1053	 0.294497554519399 
1054	 0.294443958407457 
1055	 0.294395660009226 
1056	 0.294282529192155 
1057	 0.294216841325286 
1058	 0.294192987312579 
1059	 0.294147011782795 
1060	 0.294024156949745 
1061	 0.294005550724614 
1062	 0.293975063013103 
1063	 0.293896945166787 
1064	 0.293855002789481 
1065	 0.293763831283285 
1066	 0.293616811290153 
1067	 0.293420858625976 
1068	 0.293233810176645 
1069	 0.293097066716703 
1070	 0.292960937394713 
1071	 0.292818020225846 
1072	 0.292723417178653 
1073	 0.292665574174867 
1074	 0.292565325263592 
1075	 0.292425608095196 
1076	 0.292321586729503 
1077	 0.292249553179301 
1078	 0.292147829783507 
1079	 0.292047956523606 
1080	 0.291923521132597 
1081	 0.291773049075882 
1082	 0.291637799857693 
1083	 0.291520804677728 
1084	 0.291437536676434 
1085	 0.291381032674179 
1086	 0.291326855510639 
1087	 0.291277472613688 
1088	 0.291237270707472 
1089	 0.29120415955027 
1090	 0.291118225931306 
1091	 0.291030674488798 
1092	 0.290965774330369 
1093	 0.290885764082979 
1094	 0.29087222177931 
1095	 0.290867001637426 
1096	 0.290856778123537 
1097	 0.290880473931866 
1098	 0.290869929907342 
1099	 0.290823888022903 
1100	 0.290817504918192 
1101	 0.290842405005274 
1102	 0.290855635408509 
1103	 0.290902649154298 
1104	 0.291005664393807 
1105	 0.291075673792882 
1106	 0.291107065139918 
1107	 0.291156896450227 
1108	 0.291196299252799 
1109	 0.291246036192768 
1110	 0.291298644641848 
1111	 0.291398461065448 
1112	 0.291480471462233 
1113	 0.291544801382848 
1114	 0.291651106293115 
1115	 0.291728440172684 
1116	 0.291815021382256 
1117	 0.291932629538158 
1118	 0.292039496579271 
1119	 0.292135290674112 
1120	 0.292250961454635 
1121	 0.292369442826024 
1122	 0.292508177103085 
1123	 0.29269307893913 
1124	 0.292849356072876 
1125	 0.292983690520324 
1126	 0.293129418656999 
1127	 0.293256000314667 
1128	 0.293413791329089 
1129	 0.293599360774625 
1130	 0.293762506885151 
1131	 0.29388504154413 
1132	 0.293988987389997 
1133	 0.294133396608158 
1134	 0.294274516568519 
1135	 0.294400255371303 
1136	 0.294523859686585 
1137	 0.294657725807133 
1138	 0.29477238814918 
1139	 0.294908216655896 
1140	 0.295058046510645 
1141	 0.295235195141841 
1142	 0.295404749040933 
1143	 0.295524615652491 
1144	 0.295637050829335 
1145	 0.295740799748545 
1146	 0.295815890483773 
1147	 0.295894271887796 
1148	 0.296004355590286 
1149	 0.296073315827352 
1150	 0.296133266774057 
1151	 0.296253002198856 
1152	 0.296345602337175 
1153	 0.296439502019083 
1154	 0.296519632688007 
1155	 0.296592062186022 
1156	 0.296648877934839 
1157	 0.296680590264435 
1158	 0.296730867001253 
1159	 0.296784207329129 
1160	 0.296834268939847 
1161	 0.296902168866557 
1162	 0.29698299169324 
1163	 0.297027540964261 
1164	 0.297084173302291 
1165	 0.297120733144017 
1166	 0.297117662371052 
1167	 0.297179345765145 
1168	 0.297234270343206 
1169	 0.297267118623481 
1170	 0.297310398588207 
1171	 0.297344610963492 
1172	 0.297356500296602 
1173	 0.297352879065681 
1174	 0.297339809561638 
1175	 0.297314125802876 
1176	 0.29725788978338 
1177	 0.297220880539465 
1178	 0.297178067354053 
1179	 0.297174174458665 
1180	 0.297160110061125 
1181	 0.297116509034862 
1182	 0.297040787003809 
1183	 0.296956132199594 
1184	 0.296891773360232 
1185	 0.296802699192617 
1186	 0.296737415250043 
1187	 0.296699625756693 
1188	 0.296657717574299 
1189	 0.296613531913663 
1190	 0.296574221319734 
1191	 0.296537166695825 
1192	 0.296521387552422 
1193	 0.296531449525686 
1194	 0.296509724071218 
1195	 0.296468920140529 
1196	 0.296462501935634 
1197	 0.296452652423986 
1198	 0.296443661490014 
1199	 0.296470802919034 
1200	 0.296527125773088 
1201	 0.296559294943643 
1202	 0.296583525211184 
1203	 0.296607108782255 
1204	 0.296669131604256 
1205	 0.296761063319025 
1206	 0.29686720801436 
1207	 0.296998889534176 
1208	 0.297165277507792 
1209	 0.297355084287413 
1210	 0.297567589067653 
1211	 0.297794391923034 
1212	 0.298062339311854 
1213	 0.298332960317263 
1214	 0.298590194096016 
1215	 0.298889468296523 
1216	 0.299211184944618 
1217	 0.299563016369246 
1218	 0.299945930751015 
1219	 0.300359552299025 
1220	 0.300783339583481 
1221	 0.301255147453768 
1222	 0.30170337653423 
1223	 0.302117671680494 
1224	 0.302523551763753 
1225	 0.302901433007793 
1226	 0.303287608546214 
1227	 0.303656785691646 
1228	 0.304054745109592 
1229	 0.304485219464233 
1230	 0.304870526983009 
1231	 0.305270643848808 
1232	 0.305613378929558 
1233	 0.305889816790653 
1234	 0.306185976292348 
1235	 0.306474809693009 
1236	 0.306743030696751 
1237	 0.306995584606573 
1238	 0.307249443867166 
1239	 0.30749168868953 
1240	 0.307712844657948 
1241	 0.307945819036386 
1242	 0.308161502219482 
1243	 0.308395148301007 
1244	 0.30861997800355 
1245	 0.308854596324118 
1246	 0.309107204779294 
1247	 0.309356395777203 
1248	 0.309600785522627 
1249	 0.309851252275743 
1250	 0.310110038027115 
1251	 0.310370086357694 
1252	 0.310600991365186 
1253	 0.310890369184932 
1254	 0.311238376707191 
1255	 0.311550969768094 
1256	 0.311871003184514 
1257	 0.312205451022807 
1258	 0.31254028624989 
1259	 0.312854617257849 
1260	 0.313189184089956 
1261	 0.313509211378264 
1262	 0.31378716109356 
1263	 0.314074886456597 
1264	 0.314377628237752 
1265	 0.314706319973974 
1266	 0.314997700484054 
1267	 0.315288433105907 
1268	 0.315551320687675 
1269	 0.315779964579784 
1270	 0.316022387983876 
1271	 0.316269424090224 
1272	 0.316484986504696 
1273	 0.316703516152392 
1274	 0.316877599361963 
1275	 0.31700554318055 
1276	 0.317131270025488 
1277	 0.317226543975225 
1278	 0.317325105741063 
1279	 0.317413252601291 
1280	 0.317498501746251 
1281	 0.317585602346378 
1282	 0.317656072541479 
1283	 0.317734479432035 
1284	 0.317775139648448 
1285	 0.317791199086018 
1286	 0.317782375393161 
1287	 0.317763448997682 
1288	 0.317701843115119 
1289	 0.317681750194075 
1290	 0.317673456623228 
1291	 0.317650555702738 
1292	 0.317630148117939 
1293	 0.317615203161585 
1294	 0.317601276720115 
1295	 0.317569772533635 
1296	 0.317525787796029 
1297	 0.317510031042779 
1298	 0.31748076542792 
1299	 0.317474549998844 
1300	 0.317517608447552 
1301	 0.317533851435768 
1302	 0.317523069830527 
1303	 0.317542587296436 
1304	 0.317571363157186 
1305	 0.317609459760632 
1306	 0.317668866369368 
1307	 0.317730099927618 
1308	 0.31778244158828 
1309	 0.317862607849723 
1310	 0.317947883655798 
1311	 0.318044203691544 
1312	 0.31814773930999 
1313	 0.318267063910456 
1314	 0.318380399212981 
1315	 0.318486276665417 
1316	 0.318622578453224 
1317	 0.318758239121388 
1318	 0.318932282641117 
1319	 0.319156400079708 
1320	 0.319350893175112 
1321	 0.31955583070393 
1322	 0.319754349446317 
1323	 0.319932057048634 
1324	 0.320128930287474 
1325	 0.320342217595167 
1326	 0.320548741439404 
1327	 0.320752716979231 
1328	 0.320965054919437 
1329	 0.321176738087547 
1330	 0.321396291322716 
1331	 0.321625325956679 
1332	 0.32185613536033 
1333	 0.322086164533302 
1334	 0.322326551467956 
1335	 0.322575426179925 
1336	 0.322831601091732 
1337	 0.323094904996022 
1338	 0.323375334177657 
1339	 0.323633675194756 
1340	 0.323888756282329 
1341	 0.32413902086757 
1342	 0.324390067614762 
1343	 0.324615158062603 
1344	 0.324828437221551 
1345	 0.325037599856606 
1346	 0.325228069313804 
1347	 0.325411537283992 
1348	 0.325610338274395 
1349	 0.325767713250602 
1350	 0.325889076074302 
1351	 0.326011901063322 
1352	 0.326103949156772 
1353	 0.326213544895828 
1354	 0.326329153876379 
1355	 0.326440222172234 
1356	 0.326557350797167 
1357	 0.326666693863538 
1358	 0.326759697133898 
1359	 0.326867747823093 
1360	 0.326981863127457 
1361	 0.327092162478305 
1362	 0.327230727895843 
1363	 0.327369238225268 
1364	 0.327500493439685 
1365	 0.327637197612106 
1366	 0.327763938017424 
1367	 0.3278830032046 
1368	 0.327996880701305 
1369	 0.328106871914154 
1370	 0.328214227164609 
1371	 0.32832362838492 
1372	 0.328409492351021 
1373	 0.328501518455512 
1374	 0.328549998990491 
1375	 0.328561249408232 
1376	 0.328569773131098 
1377	 0.328576155961687 
1378	 0.328531625703943 
1379	 0.328453367772452 
1380	 0.328367463746706 
1381	 0.328219257021857 
1382	 0.32810578949247 
1383	 0.327992791284795 
1384	 0.327900865286817 
1385	 0.327833221539589 
1386	 0.327756139376473 
1387	 0.327691546031238 
1388	 0.327625742285855 
1389	 0.327547269903819 
1390	 0.327480276367476 
1391	 0.327417024764821 
1392	 0.327364782936829 
1393	 0.327331154979905 
1394	 0.327302898223466 
1395	 0.327296092722564 
1396	 0.327323112389032 
1397	 0.327317297817076 
1398	 0.327334573358062 
1399	 0.327280292119118 
1400	 0.327205150475703 
1401	 0.327071656881805 
1402	 0.326890542740265 
1403	 0.326666644338006 
1404	 0.326387206953968 
1405	 0.326097131961734 
1406	 0.325762458676246 
1407	 0.325424952078921 
1408	 0.325070888747626 
1409	 0.324702482099188 
1410	 0.324295759282948 
1411	 0.323917559668273 
1412	 0.323534368109818 
1413	 0.323167802508351 
1414	 0.322806831984734 
1415	 0.322473322279158 
1416	 0.322147320844411 
1417	 0.321847966652289 
1418	 0.321588589685752 
1419	 0.321327818659949 
1420	 0.321082419887478 
1421	 0.320843345653878 
1422	 0.320615634752461 
1423	 0.320387156886512 
1424	 0.320173364086028 
1425	 0.319935970696379 
1426	 0.319731277275056 
1427	 0.319541511505838 
1428	 0.319366264153833 
1429	 0.319218616786733 
1430	 0.319037382281834 
1431	 0.3188409724162 
1432	 0.318664192308471 
1433	 0.318488936627849 
1434	 0.318298090933059 
1435	 0.318116037880528 
1436	 0.317922957133654 
1437	 0.317697072736793 
1438	 0.31750609602832 
1439	 0.317318842563619 
1440	 0.317164442363759 
1441	 0.317037753386848 
1442	 0.316905053178293 
1443	 0.316766921533596 
1444	 0.316690541872903 
1445	 0.316596470614815 
1446	 0.316612191041997 
1447	 0.316701254180527 
1448	 0.316856024918579 
1449	 0.317093305929611 
1450	 0.317365496539938 
1451	 0.317705436754962 
1452	 0.318084252457346 
1453	 0.318517128885988 
1454	 0.318970949493395 
1455	 0.319477080832149 
1456	 0.319993947680197 
1457	 0.320566781618331 
1458	 0.321099868073872 
1459	 0.321638555796792 
1460	 0.322163954060961 
1461	 0.322652152499884 
1462	 0.323147858071363 
1463	 0.323647421372253 
1464	 0.324147391144462 
1465	 0.324638868123234 
1466	 0.325146897978269 
1467	 0.325621419934683 
1468	 0.326100019570604 
1469	 0.326587430319303 
1470	 0.327018296568275 
1471	 0.327476559555378 
1472	 0.327941770124987 
1473	 0.328402317427189 
1474	 0.328864115489332 
1475	 0.329309130857336 
1476	 0.329755149078581 
1477	 0.330179303056674 
1478	 0.330589701226861 
1479	 0.330971704883678 
1480	 0.33133504103392 
1481	 0.331687877477956 
1482	 0.332008451334771 
1483	 0.332335379120893 
1484	 0.332665352824165 
1485	 0.332974091032778 
1486	 0.333269399380645 
1487	 0.333552953377739 
1488	 0.33380921348378 
1489	 0.334086758860639 
1490	 0.334348245155824 
1491	 0.334644675507553 
1492	 0.334948629456542 
1493	 0.335294505172615 
1494	 0.335679710110528 
1495	 0.336065467846594 
1496	 0.336478559397571 
1497	 0.336900824450519 
1498	 0.337350824795098 
1499	 0.337775918979524 
1500	 0.33820357549794 
1501	 0.338629938271839 
1502	 0.33903124263692 
1503	 0.339443007301538 
1504	 0.339888957816209 
1505	 0.340297478010422 
1506	 0.340687741058737 
1507	 0.341066939501785 
1508	 0.341416168356169 
1509	 0.341771873597496 
1510	 0.342137669644057 
1511	 0.342473341043534 
1512	 0.342794908404057 
1513	 0.343103513164778 
1514	 0.343394978376239 
1515	 0.343662995378504 
1516	 0.3439111775864 
1517	 0.344150551739221 
1518	 0.344349286954631 
1519	 0.344564531607358 
1520	 0.344795789099109 
1521	 0.345010150136162 
1522	 0.345223567846901 
1523	 0.34542163833512 
1524	 0.345589737165663 
1525	 0.345721355650801 
1526	 0.345881266873556 
1527	 0.346033497114366 
1528	 0.346183072724927 
1529	 0.346343082341802 
1530	 0.346491291581431 
1531	 0.346625982062547 
1532	 0.346757238711607 
1533	 0.346890475751319 
1534	 0.34701734969438 
1535	 0.347116885047298 
1536	 0.347260779926445 
1537	 0.347426331911044 
1538	 0.347585555125677 
1539	 0.347754683192632 
1540	 0.347942292236796 
1541	 0.348130778519707 
1542	 0.348338816709433 
1543	 0.348576611925832 
1544	 0.348808857971218 
1545	 0.349028358646513 
1546	 0.349296216728943 
1547	 0.349606181473584 
1548	 0.349888725051524 
1549	 0.350183026790909 
1550	 0.350484436610659 
1551	 0.35078208331412 
1552	 0.351069934206096 
1553	 0.351371651272732 
1554	 0.351665976119649 
1555	 0.351939699141957 
1556	 0.352217336431753 
1557	 0.352503983537035 
1558	 0.352789632987338 
1559	 0.353056715483738 
1560	 0.353343827868742 
1561	 0.353660512519657 
1562	 0.35395004890376 
1563	 0.354225297665109 
1564	 0.354511378867396 
1565	 0.354785562971096 
1566	 0.355076370449019 
1567	 0.355395058093653 
1568	 0.355685854476924 
1569	 0.355959384311084 
1570	 0.356250572433187 
1571	 0.356532210490385 
1572	 0.356827352332266 
1573	 0.357147743019232 
1574	 0.35745528240763 
1575	 0.357772920826456 
1576	 0.358061584077103 
1577	 0.358320300738336 
1578	 0.358604624222769 
1579	 0.358877255695224 
1580	 0.359162957844837 
1581	 0.359478080265721 
1582	 0.359781125676812 
1583	 0.360080502141249 
1584	 0.360374477503581 
1585	 0.360658554519673 
1586	 0.360960427321407 
1587	 0.361273467327204 
1588	 0.361569414190803 
1589	 0.361881287564474 
1590	 0.36217019024484 
1591	 0.362422654424314 
1592	 0.362693827415505 
1593	 0.36295164885781 
1594	 0.363237128091035 
1595	 0.363559431395445 
1596	 0.363849927660246 
1597	 0.364137942852012 
1598	 0.364429771802509 
1599	 0.36471142722296 
1600	 0.364980694085352 
1601	 0.365239446573959 
1602	 0.365519855648817 
1603	 0.36580093247175 
1604	 0.366071724761405 
1605	 0.366368306600845 
1606	 0.366644151642307 
1607	 0.366882767521244 
1608	 0.367138446725105 
1609	 0.36739822849973 
1610	 0.367662844178021 
1611	 0.367948517805731 
1612	 0.368203990419067 
1613	 0.3684606845642 
1614	 0.368691734316512 
1615	 0.368884248130536 
1616	 0.369079986274835 
1617	 0.369242562568059 
1618	 0.369441939409104 
1619	 0.369686079200346 
1620	 0.369876659953509 
1621	 0.370070170935672 
1622	 0.370236748613644 
1623	 0.37033537158711 
1624	 0.370462846842933 
1625	 0.370596387053618 
1626	 0.370731803999795 
1627	 0.370879304042805 
1628	 0.371009550821147 
1629	 0.371119356336359 
1630	 0.371253820972712 
1631	 0.371396337380996 
1632	 0.371531749370891 
1633	 0.371687328998718 
1634	 0.371830611064307 
1635	 0.371951244933291 
1636	 0.372083087883596 
1637	 0.372223087099983 
1638	 0.372358181721738 
1639	 0.372493744068662 
1640	 0.37262702445757 
1641	 0.372772133298688 
1642	 0.372894752619277 
1643	 0.37299569178695 
1644	 0.373100464474567 
1645	 0.373199879663832 
1646	 0.373280691577818 
1647	 0.373384264018528 
1648	 0.373435555871983 
1649	 0.373431889975014 
1650	 0.373436199838232 
1651	 0.373418234337201 
1652	 0.373388618561456 
1653	 0.37336078375179 
1654	 0.37330886124608 
1655	 0.373219122714411 
1656	 0.373137058933573 
1657	 0.373070723151021 
1658	 0.372955103565183 
1659	 0.372824633483796 
1660	 0.37266724918512 
1661	 0.37249103961944 
1662	 0.372249509477954 
1663	 0.37196141641605 
1664	 0.371639337269511 
1665	 0.371261392859509 
1666	 0.370838050567821 
1667	 0.370406802974712 
1668	 0.369899336500696 
1669	 0.369329889122817 
1670	 0.368690643347351 
1671	 0.36795723065954 
1672	 0.367215693100044 
1673	 0.366438392293739 
1674	 0.365578958948986 
1675	 0.36468480648695 
1676	 0.363746852940545 
1677	 0.362734424710167 
1678	 0.361670103360122 
1679	 0.360557387861544 
1680	 0.359400498587108 
1681	 0.358169509122111 
1682	 0.356902456898011 
1683	 0.355636608205375 
1684	 0.354285341074924 
1685	 0.352858864054905 
1686	 0.351370905466601 
1687	 0.349785449955623 
1688	 0.348192862063474 
1689	 0.346561206256474 
1690	 0.344873793101335 
1691	 0.343159775338709 
1692	 0.341416495573512 
1693	 0.339605457662904 
1694	 0.337791720654442 
1695	 0.33596425339003 
1696	 0.334083675364164 
1697	 0.332165398401591 
1698	 0.330187872930122 
1699	 0.328161126910028 
1700	 0.326172035890359 
1701	 0.324125191533864 
1702	 0.322165214164012 
1703	 0.320189160355555 
1704	 0.318343487899027 
1705	 0.316539898225015 
1706	 0.314850422277602 
1707	 0.313409305951962 
1708	 0.312012874500117 
1709	 0.310710573509879 
1710	 0.309515122760596 
1711	 0.308347445529821 
1712	 0.307340069758989 
1713	 0.306398507932831 
1714	 0.305523748892675 
1715	 0.304730770532348 
1716	 0.303888668905849 
1717	 0.303089770472738 
1718	 0.30231452012653 
1719	 0.301542061464297 
1720	 0.300877585231583 
1721	 0.300298309666944 
1722	 0.299785896887748 
1723	 0.299387314219298 
1724	 0.299102666537577 
1725	 0.298887214895991 
1726	 0.298816710950625 
1727	 0.298974639690161 
1728	 0.299260335654962 
1729	 0.299714529546454 
1730	 0.300378292880281 
1731	 0.301131435671142 
1732	 0.302035744572373 
1733	 0.303033915362686 
1734	 0.304116690414157 
1735	 0.305235759498908 
1736	 0.306276481422568 
1737	 0.307336886129248 
1738	 0.308288688549259 
1739	 0.309042026536936 
1740	 0.309708995773591 
1741	 0.310189640085142 
1742	 0.310425404370029 
1743	 0.310664849412766 
1744	 0.310770532096768 
1745	 0.310838113044845 
1746	 0.31084910725102 
1747	 0.310816424933261 
1748	 0.310692602251858 
1749	 0.310615876120964 
1750	 0.31046093447716 
1751	 0.310432746521569 
1752	 0.310456683311887 
1753	 0.31055889564279 
1754	 0.310751459433993 
1755	 0.311006730186314 
1756	 0.311315217538618 
1757	 0.311670472236407 
1758	 0.312150288951718 
1759	 0.312755247941864 
1760	 0.313474484270616 
1761	 0.314379553415764 
1762	 0.315348602471768 
1763	 0.3163528468257 
1764	 0.317455058731907 
1765	 0.318677665505626 
1766	 0.320058976287246 
1767	 0.321492734846317 
1768	 0.322971954071051 
1769	 0.324444680379684 
1770	 0.325810202238831 
1771	 0.327211870530753 
1772	 0.32855447964347 
1773	 0.329781354063534 
1774	 0.331001244469328 
1775	 0.33209602200281 
1776	 0.33316502848198 
1777	 0.334220191610688 
1778	 0.335157712674036 
1779	 0.336071395130035 
1780	 0.336878918513474 
1781	 0.337612021495182 
1782	 0.338322323859558 
1783	 0.338928135032555 
1784	 0.339582795116052 
1785	 0.340194810047826 
1786	 0.34072293669432 
1787	 0.341237705715921 
1788	 0.341678338393121 
1789	 0.341991602206733 
1790	 0.342380726974542 
1791	 0.342778164523126 
1792	 0.34312763297636 
1793	 0.343481057110937 
1794	 0.343760068947342 
1795	 0.344050366318418 
1796	 0.344413662957127 
1797	 0.34472966743017 
1798	 0.345054565505778 
1799	 0.345437553598712 
1800	 0.345762173141322 
1801	 0.352929857878689 
1802	 0.353447115436523 
1803	 0.353901015680033 
1804	 0.354309407283325 
1805	 0.354753826907829 
1806	 0.355155009397167 
1807	 0.355523701666028 
1808	 0.355893627667879 
1809	 0.356278624139239 
1810	 0.35660942937144 
1811	 0.356887266431385 
1812	 0.357182893426854 
1813	 0.357452167175938 
1814	 0.357722406779441 
1815	 0.357986611571273 
1816	 0.358316817784587 
1817	 0.358641067280198 
1818	 0.358958581902512 
1819	 0.359306186414318 
1820	 0.359699335412531 
1821	 0.360062706459407 
1822	 0.360406820602831 
1823	 0.360803602134455 
1824	 0.361174478440358 
1825	 0.361585549063635 
1826	 0.361951842791084 
1827	 0.3623150070879 
1828	 0.362650889470014 
1829	 0.362947807605859 
1830	 0.36325369281306 
1831	 0.363540293324956 
1832	 0.363870240652071 
1833	 0.364163921211117 
1834	 0.364456197235658 
1835	 0.364780375152246 
1836	 0.365096347250685 
1837	 0.365435803128344 
1838	 0.365795390455355 
1839	 0.366149856158144 
1840	 0.366509992799307 
1841	 0.366894372951682 
1842	 0.36727554879715 
1843	 0.367709125709257 
1844	 0.368161955115172 
1845	 0.368541382606694 
1846	 0.368941231827005 
1847	 0.369312306767751 
1848	 0.369634743506301 
1849	 0.369923433165552 
1850	 0.370203854701863 
1851	 0.370446449941713 
1852	 0.370669284968767 
1853	 0.37091465237388 
1854	 0.371101702905608 
1855	 0.371252052657952 
1856	 0.371385448844537 
1857	 0.371457928692997 
1858	 0.371510273871977 
1859	 0.371542553136856 
1860	 0.371566139856641 
1861	 0.371520054590433 
1862	 0.371444472239434 
1863	 0.371329371602834 
1864	 0.37112454154576 
1865	 0.370858827991583 
1866	 0.370514108718206 
1867	 0.37013112180166 
1868	 0.369678614181174 
1869	 0.369167493653108 
1870	 0.368695482521471 
1871	 0.368210425808117 
1872	 0.367732041498837 
1873	 0.367269312017591 
1874	 0.366823490668135 
1875	 0.366373790813604 
1876	 0.365842525370697 
1877	 0.365287223355217 
1878	 0.364672067718677 
1879	 0.363953995558967 
1880	 0.363182318493116 
1881	 0.362266108281199 
1882	 0.361224876642516 
1883	 0.36012331133438 
1884	 0.358892640279459 
1885	 0.357512930964662 
1886	 0.356151083968188 
1887	 0.354643572471923 
1888	 0.353017988695947 
1889	 0.351464035607584 
1890	 0.349762015671667 
1891	 0.347989758228263 
1892	 0.346211514471511 
1893	 0.344336291336564 
1894	 0.342313006434102 
1895	 0.340339784826254 
1896	 0.338372548086567 
1897	 0.336370880540069 
1898	 0.334529007969757 
1899	 0.332621997038274 
1900	 0.330758129388954 
1901	 0.329005422405297 
1902	 0.327120190446014 
1903	 0.325399050582524 
1904	 0.323772666623256 
1905	 0.322211464347279 
1906	 0.320692311197117 
1907	 0.319440380095193 
1908	 0.318194250780091 
1909	 0.316957936095023 
1910	 0.315822248754919 
1911	 0.314645451084317 
1912	 0.31352116753875 
1913	 0.312467349864992 
1914	 0.311469079597432 
1915	 0.310550245295648 
1916	 0.309721529185266 
1917	 0.308915483855108 
1918	 0.308178310583812 
1919	 0.307469948098645 
1920	 0.30671451273097 
1921	 0.306029606244722 
1922	 0.305359609689339 
1923	 0.304705350513336 
1924	 0.304156474533461 
1925	 0.303631375994565 
1926	 0.303125223925391 
1927	 0.302655589349309 
1928	 0.302194965312452 
1929	 0.301743751939839 
1930	 0.301334871495856 
1931	 0.300945683391734 
1932	 0.30060679506806 
1933	 0.300342050169744 
1934	 0.300089879405542 
1935	 0.299854009799361 
1936	 0.299699930516395 
1937	 0.299595787940438 
1938	 0.299522587829841 
1939	 0.299523958776114 
1940	 0.299591828197597 
1941	 0.299728569946717 
1942	 0.299910429572651 
1943	 0.300162695226022 
1944	 0.300482823529215 
1945	 0.300788050430684 
1946	 0.301117497089646 
1947	 0.301442722730197 
1948	 0.301810363955302 
1949	 0.302255154095799 
1950	 0.30271775812405 
1951	 0.303223433500336 
1952	 0.303774561389625 
1953	 0.304355663337035 
1954	 0.304975645887279 
1955	 0.305683533860091 
1956	 0.306393643059017 
1957	 0.307088886762717 
1958	 0.30783374144968 
1959	 0.308539499796406 
1960	 0.309220699663065 
1961	 0.309858889082626 
1962	 0.31047469376767 
1963	 0.311034895057194 
1964	 0.311546626997692 
1965	 0.312023649385672 
1966	 0.312468909601744 
1967	 0.312882261721972 
1968	 0.313212120244969 
1969	 0.313561395182331 
1970	 0.313931043395689 
1971	 0.31429302121698 
1972	 0.314666198621991 
1973	 0.315021596424745 
1974	 0.315398218998954 
1975	 0.315772317434618 
1976	 0.316151744487497 
1977	 0.316551328112777 
1978	 0.316949830348126 
1979	 0.317334661496762 
1980	 0.317727836824241 
1981	 0.318165042825629 
1982	 0.318603589349551 
1983	 0.319051430392694 
1984	 0.319446884536438 
1985	 0.319787992049861 
1986	 0.320202364717963 
1987	 0.320627866899906 
1988	 0.321044099395731 
1989	 0.321518525821906 
1990	 0.322033325616095 
1991	 0.322571423088978 
1992	 0.323143959259815 
1993	 0.323762619867796 
1994	 0.324359017907721 
1995	 0.324973016312178 
1996	 0.325556678464642 
1997	 0.326156486605504 
1998	 0.326764683194727 
1999	 0.327404900351202 
2000	 0.328000441887685 
2001	 0.328602637799146 
2002	 0.329152505977546 
2003	 0.329692234188601 
2004	 0.330167644590199 
2005	 0.330586463603276 
2006	 0.330979087137647 
2007	 0.331327287131042 
2008	 0.331627203932888 
2009	 0.331919944773109 
2010	 0.332199223328234 
2011	 0.332423088967777 
2012	 0.332641136280612 
2013	 0.332826374083729 
2014	 0.332979497486459 
2015	 0.333112086288299 
2016	 0.333231424419976 
2017	 0.333300514062503 
2018	 0.333347897198874 
2019	 0.333337294765224 
2020	 0.333253714543394 
2021	 0.33316918725359 
2022	 0.333072708003891 
2023	 0.332956881578407 
2024	 0.332842342223669 
2025	 0.332700505589851 
2026	 0.332520406733943 
2027	 0.332277459634202 
2028	 0.332061311009858 
2029	 0.331842560978913 
2030	 0.33159389306493 
2031	 0.331326070780939 
2032	 0.331064091555088 
2033	 0.33076261350419 
2034	 0.33049124158662 
2035	 0.330233846892737 
2036	 0.329996157650318 
2037	 0.329758292184271 
2038	 0.329493313322925 
2039	 0.329254509369217 
2040	 0.329019630352107 
2041	 0.328795723304575 
2042	 0.328601924973931 
2043	 0.328388304167261 
2044	 0.328151222298219 
2045	 0.327946594670028 
2046	 0.32773695849643 
2047	 0.327553538648403 
2048	 0.327411405154426 
2049	 0.3272733411688 
2050	 0.327164039025624 
2051	 0.327027716977984 
2052	 0.326908224553922 
2053	 0.326778540399777 
2054	 0.326634894100025 
2055	 0.326457483174646 
2056	 0.326336129366008 
2057	 0.32623244099742 
2058	 0.326122482037008 
2059	 0.326054908342131 
2060	 0.325948989845216 
2061	 0.325805400458185 
2062	 0.325689606038697 
2063	 0.325574361165565 
2064	 0.325464053420696 
2065	 0.325385976715297 
2066	 0.325279977063142 
2067	 0.325101582012698 
2068	 0.324990264849685 
2069	 0.324864697898883 
2070	 0.324719998766407 
2071	 0.324579381873722 
2072	 0.32446780600439 
2073	 0.32432474345781 
2074	 0.324168624233028 
2075	 0.3239891314208 
2076	 0.323791682987599 
2077	 0.323598840482763 
2078	 0.323360697984816 
2079	 0.323157866588882 
2080	 0.323019694401956 
2081	 0.322815251242955 
2082	 0.322586364067173 
2083	 0.322337000096491 
2084	 0.322080675359812 
2085	 0.3218093662338 
2086	 0.321570174678544 
2087	 0.321385650048826 
2088	 0.321140508811046 
2089	 0.320880340144973 
2090	 0.320602271987261 
2091	 0.320287762064367 
2092	 0.319983380301589 
2093	 0.319675424112423 
2094	 0.319358664142894 
2095	 0.319028037436613 
2096	 0.318700016795044 
2097	 0.318363347954941 
2098	 0.318049491447688 
2099	 0.31769136215037 
2100	 0.317296637607453 
2101	 0.316898229290521 
2102	 0.316465166792189 
2103	 0.316029645918043 
2104	 0.315594507470552 
2105	 0.315142668864044 
2106	 0.314666591958534 
2107	 0.314172402902332 
2108	 0.313680641334825 
2109	 0.31315110091074 
2110	 0.312578819660388 
2111	 0.312011676819787 
2112	 0.311394688740262 
2113	 0.310819551106386 
2114	 0.310281723610512 
2115	 0.30971088788772 
2116	 0.309132697794407 
2117	 0.308580958103262 
2118	 0.307998147242206 
2119	 0.307378059578046 
2120	 0.30678347798394 
2121	 0.306179111081751 
2122	 0.305618221748816 
2123	 0.305059544439357 
2124	 0.304538774968391 
2125	 0.304064425396198 
2126	 0.303598246304176 
2127	 0.303142522246684 
2128	 0.302723953050877 
2129	 0.302332753754526 
2130	 0.301965938244601 
2131	 0.301626839847153 
2132	 0.301312509308364 
2133	 0.30101165188151 
2134	 0.300768821495048 
2135	 0.300527790106417 
2136	 0.300324099427574 
2137	 0.300138827595916 
2138	 0.299970222307862 
2139	 0.299843524780387 
2140	 0.299764853279484 
2141	 0.299667505257462 
2142	 0.299611235600969 
2143	 0.299517616904392 
2144	 0.299363281075834 
2145	 0.299306669728087 
2146	 0.299263422946275 
2147	 0.299271858218923 
2148	 0.299365165911292 
2149	 0.299457631005969 
2150	 0.299576569552887 
2151	 0.299708821204443 
2152	 0.299874449505945 
2153	 0.300043618232873 
2154	 0.300203509700472 
2155	 0.300366731134521 
2156	 0.300539898234371 
2157	 0.300712513364317 
2158	 0.300895430603116 
2159	 0.301105898263059 
2160	 0.30127551780817 
2161	 0.301438895726529 
2162	 0.301585701362117 
2163	 0.301703423516732 
2164	 0.301826356917463 
2165	 0.30195765687034 
2166	 0.302048892636409 
2167	 0.30207491696285 
2168	 0.302177851291438 
2169	 0.302295588538039 
2170	 0.302417897524233 
2171	 0.302616491351861 
2172	 0.302763942033866 
2173	 0.302847510756754 
2174	 0.302977207898157 
2175	 0.303125466134136 
2176	 0.303282733917327 
2177	 0.303458416535367 
2178	 0.303678857927045 
2179	 0.303853753953453 
2180	 0.304018426119787 
2181	 0.304185798012135 
2182	 0.304347953889769 
2183	 0.304509015677774 
2184	 0.304651268881442 
2185	 0.304827983667107 
2186	 0.305021674672024 
2187	 0.30520141881306 
2188	 0.305420421168892 
2189	 0.305598696195668 
2190	 0.305756616348097 
2191	 0.305887011691874 
2192	 0.305984417536233 
2193	 0.306083254876395 
2194	 0.306158373355372 
2195	 0.306229247241572 
2196	 0.306316437987778 
2197	 0.306362552730148 
2198	 0.306386192081676 
2199	 0.306413163050795 
2200	 0.306411086458615 
2201	 0.306395116758436 
2202	 0.306351895457608 
2203	 0.306296329672577 
2204	 0.306188692614672 
2205	 0.306034877351833 
2206	 0.305878621301856 
2207	 0.305682868114622 
2208	 0.305480780124929 
2209	 0.305260516251715 
2210	 0.305054056881446 
2211	 0.304844554541735 
2212	 0.30461372678355 
2213	 0.304364076920672 
2214	 0.304140290228214 
2215	 0.30393357900723 
2216	 0.303682547037184 
2217	 0.303451439470684 
2218	 0.303184692363007 
2219	 0.302854333954816 
2220	 0.302520257075419 
2221	 0.30217853286715 
2222	 0.301827278249634 
2223	 0.30145812193499 
2224	 0.301042510781253 
2225	 0.300623639749831 
2226	 0.300202169377136 
2227	 0.299723885798632 
2228	 0.299254598233442 
2229	 0.298627107109021 
2230	 0.297898811986654 
2231	 0.297141985496466 
2232	 0.2962870238582 
2233	 0.295380233554026 
2234	 0.294501754028161 
2235	 0.293406610255348 
2236	 0.292159061678843 
2237	 0.290838548825329 
2238	 0.289322291930346 
2239	 0.28783424115878 
2240	 0.286346300580747 
2241	 0.284696882548854 
2242	 0.283036485496686 
2243	 0.281163717703797 
2244	 0.27903325380263 
2245	 0.276923625014384 
2246	 0.27459742493106 
2247	 0.27237501628766 
2248	 0.270271483142003 
2249	 0.267995979127398 
2250	 0.265623778250119 
2251	 0.26330728928345 
2252	 0.260788100656214 
2253	 0.258364333132487 
2254	 0.255883887925075 
2255	 0.253403721019915 
2256	 0.251139101720709 
2257	 0.248734114349455 
2258	 0.246499549935032 
2259	 0.244494338168715 
2260	 0.242315985490425 
2261	 0.240069022125807 
2262	 0.237931521825259 
2263	 0.235696711907883 
2264	 0.233711869895557 
2265	 0.231946706834336 
2266	 0.230103727726669 
2267	 0.228409656243565 
2268	 0.226626533941489 
2269	 0.224785284049578 
2270	 0.222975708916479 
2271	 0.221120729737843 
2272	 0.219370506965752 
2273	 0.217604767085546 
2274	 0.215974582087216 
2275	 0.214607616130835 
2276	 0.213047038693602 
2277	 0.211487749882029 
2278	 0.209889861386971 
2279	 0.208117286837891 
2280	 0.206402221664752 
2281	 0.204749372075946 
2282	 0.203050292808421 
2283	 0.20133632637427 
2284	 0.199631348249731 
2285	 0.197739734578076 
2286	 0.19582745286814 
2287	 0.193807970697493 
2288	 0.191697583632354 
2289	 0.189730955315454 
2290	 0.187764222485753 
2291	 0.185803543301116 
2292	 0.18390090912012 
2293	 0.181957468108446 
2294	 0.179997367336113 
2295	 0.178069687766138 
2296	 0.17624750862525 
2297	 0.17468072249344 
2298	 0.17325991496003 
2299	 0.172098202401728 
2300	 0.171217016807003 
2301	 0.170472175287059 
2302	 0.169897828408916 
2303	 0.169593850845416 
2304	 0.169498307851006 
2305	 0.169670608260774 
2306	 0.170157266760064 
2307	 0.170812596689216 
2308	 0.171678950579594 
2309	 0.172791431063148 
2310	 0.174228165368517 
2311	 0.175696173945638 
2312	 0.177486049424088 
2313	 0.179164542508615 
2314	 0.180874041084579 
2315	 0.182585977810336 
2316	 0.184370518012024 
2317	 0.18600113974581 
2318	 0.18766836055838 
2319	 0.189103623181869 
2320	 0.190412924147988 
2321	 0.19151341646888 
2322	 0.19245005412902 
2323	 0.193186158974866 
2324	 0.193681842273815 
2325	 0.194033871791968 
2326	 0.194126380276165 
2327	 0.19416391522109 
2328	 0.194091466965252 
2329	 0.193905316675462 
2330	 0.193626868269754 
2331	 0.193181077733624 
2332	 0.192666784703882 
2333	 0.191897193621868 
2334	 0.190883102701667 
2335	 0.189864196172907 
2336	 0.188759116091509 
2337	 0.187537288967819 
2338	 0.186387642245783 
2339	 0.185220583510104 
2340	 0.184025751773751 
2341	 0.18275929368925 
2342	 0.18153144256943 
2343	 0.180535221437999 
2344	 0.179639298912363 
2345	 0.178943831884437 
2346	 0.178623770328342 
2347	 0.178590928270695 
2348	 0.178754396016276 
2349	 0.179257227404627 
2350	 0.180033156874612 
2351	 0.180904598315428 
2352	 0.181953541779991 
2353	 0.183277265412222 
2354	 0.184565320020249 
2355	 0.185921973000945 
2356	 0.187305092853794 
2357	 0.188422568755713 
2358	 0.189364344119475 
2359	 0.190127921017921 
2360	 0.190760793704405 
2361	 0.191196905644953 
2362	 0.191468845667752 
2363	 0.191586709069859 
2364	 0.191628747074953 
2365	 0.191567473879438 
2366	 0.191469277254716 
2367	 0.191510751442375 
2368	 0.191570430778594 
2369	 0.191608143258514 
2370	 0.191621496714711 
2371	 0.191579097560463 
2372	 0.191478671458284 
2373	 0.191461229810505 
2374	 0.191513398467809 
2375	 0.191601989151084 
2376	 0.191763197952709 
2377	 0.191911851103082 
2378	 0.191986133849104 
2379	 0.192020093735383 
2380	 0.192119739037544 
2381	 0.192238306642794 
2382	 0.192289569148756 
2383	 0.192385434848791 
2384	 0.192472617745195 
2385	 0.192382367291364 
2386	 0.192516251606982 
2387	 0.192896186337787 
2388	 0.193072909664553 
2389	 0.193237939897701 
2390	 0.193377116777578 
2391	 0.193348930550346 
2392	 0.19352887716219 
2393	 0.193890104740604 
2394	 0.194062852061653 
2395	 0.194191688874302 
2396	 0.194347186787423 
2397	 0.194377571498275 
2398	 0.194578121789329 
2399	 0.194988535356478 
2400	 0.195208244679293 
2401	 0.195386943399657 
2402	 0.195284518492604 
2403	 0.195357402859329 
2404	 0.195533928587699 
2405	 0.195687174536197 
2406	 0.195974636538039 
2407	 0.196038052115153 
2408	 0.195847049046149 
2409	 0.195809333194212 
2410	 0.195851408765063 
2411	 0.195896661793823 
2412	 0.19609013053234 
2413	 0.196264719746916 
2414	 0.196284562961061 
2415	 0.196208716552601 
2416	 0.196255666678452 
2417	 0.196405029414962 
2418	 0.196539242838138 
2419	 0.196827274612767 
2420	 0.196991985550842 
2421	 0.196996867280076 
2422	 0.196860169859505 
2423	 0.196586494026649 
2424	 0.196577879937366 
2425	 0.196748316923005 
2426	 0.197077494412472 
2427	 0.197494518712289 
2428	 0.19763392009827 
2429	 0.19758910228487 
2430	 0.197509036762538 
2431	 0.197383331223862 
2432	 0.197441856061113 
2433	 0.19756127420326 
2434	 0.197407480492455 
2435	 0.197229028523796 
2436	 0.196912235495732 
2437	 0.196553193484705 
2438	 0.196441007286419 
2439	 0.196292298777323 
2440	 0.196334863454014 
2441	 0.196364354379791 
2442	 0.196403176020552 
2443	 0.196541566660985 
2444	 0.196404005666811 
2445	 0.196339124187438 
2446	 0.196244015448004 
2447	 0.196232792453792 
2448	 0.196389486298897 
2449	 0.196105461978429 
2450	 0.195599745707454 
2451	 0.195308508149354 
2452	 0.194911235132195 
2453	 0.194838595114815 
2454	 0.194985352432523 
2455	 0.194598446095161 
2456	 0.194469076150731 
2457	 0.194386932632933 
2458	 0.193935559724008 
2459	 0.193826934031643 
2460	 0.193652457273062 
2461	 0.192939640315352 
2462	 0.192704029713601 
2463	 0.192904738137446 
2464	 0.19279536889821 
2465	 0.193079933259744 
2466	 0.19337317337958 
2467	 0.193127117197839 
2468	 0.193205063467338 
2469	 0.193424722485517 
2470	 0.193430994670792 
2471	 0.193290425754346 
2472	 0.192890628973743 
2473	 0.192463569985784 
2474	 0.192230579202906 
2475	 0.192395424485003 
2476	 0.19261108814256 
2477	 0.192941459260091 
2478	 0.193046256644802 
2479	 0.192742484863871 
2480	 0.19296339653088 
2481	 0.193058626556838 
2482	 0.193640668221755 
2483	 0.193905966664176 
2484	 0.193811746230341 
2485	 0.194341964504291 
2486	 0.194777394321857 
2487	 0.195059245448763 
2488	 0.195134681585354 
2489	 0.194954944886059 
2490	 0.195385686829823 
2491	 0.19604762000509 
2492	 0.196922336717355 
2493	 0.198050058624797 
2494	 0.198303666497314 
2495	 0.198409611005775 
2496	 0.199165401695312 
2497	 0.199784832116581 
2498	 0.199988362434921 
2499	 0.200380643635149 
2500	 0.200405068022974 
