Wavelength	Tablay400092.asd
350	 0.222025619064205 
351	 0.191326554122485 
352	 0.171675906363062 
353	 0.249009595099981 
354	 0.375858078654512 
355	 0.269765929216361 
356	 0.135809665269034 
357	 0.174726599055775 
358	 0.144998982720669 
359	 0.219389338739522 
360	 0.287565338125462 
361	 0.175214708095187 
362	 0.215506904284188 
363	 0.237995186090037 
364	 0.178078828468861 
365	 0.194126151314009 
366	 0.195110045748297 
367	 0.171490065287253 
368	 0.148237035569707 
369	 0.205798138665693 
370	 0.1463770565188 
371	 5.62087625796723E-02 
372	 0.152259321653176 
373	 0.194949956079145 
374	 0.148494507454559 
375	 6.71383447870336E-02 
376	 0.110713272504023 
377	 8.72598231298354E-02 
378	 0.077996892052257 
379	 0.153801287754626 
380	 0.146057142194994 
381	 0.113501318645734 
382	 0.109298919493845 
383	 0.156168143365093 
384	 0.146243225212577 
385	 0.122707445297679 
386	 0.124630090521371 
387	 0.154544579994726 
388	 0.143493954442317 
389	 0.117405199260921 
390	 0.115960000500172 
391	 0.129716695179364 
392	 0.124675231397865 
393	 0.102593418155694 
394	 8.65469267865233E-02 
395	 7.63272746866778E-02 
396	 8.44251539780221E-02 
397	 0.107838809988856 
398	 0.123577923561803 
399	 0.11605348504971 
400	 0.105522795061242 
401	 0.111256433778709 
402	 0.109720350463278 
403	 0.103157588609741 
404	 0.103542145778183 
405	 0.124883552554809 
406	 0.125877348167188 
407	 0.119851448453517 
408	 0.116867789023585 
409	 0.105857475235708 
410	 9.36414381296923E-02 
411	 9.71469688469394E-02 
412	 0.122263533330492 
413	 0.113043725331377 
414	 0.101446157794021 
415	 0.104172018791325 
416	 0.11784956256116 
417	 0.117990025859043 
418	 0.113602886955459 
419	 0.114542962118975 
420	 0.120367716549866 
421	 0.113698167563472 
422	 0.106721238063294 
423	 0.117180433919188 
424	 0.11752939204811 
425	 0.115069061356513 
426	 0.114357028396458 
427	 0.11389893048319 
428	 0.114510152679654 
429	 0.113994260547409 
430	 0.112643437725278 
431	 0.120705136650803 
432	 0.121582166210114 
433	 0.119576996309482 
434	 0.127610429603004 
435	 0.127227036218469 
436	 0.126025619571483 
437	 0.127950539146708 
438	 0.127356849129027 
439	 0.126081765266164 
440	 0.126646867761712 
441	 0.130362668726582 
442	 0.133573442785263 
443	 0.133281215455778 
444	 0.131272857131172 
445	 0.132655913389469 
446	 0.135800305109072 
447	 0.13904468982014 
448	 0.141068291108529 
449	 0.141385772642991 
450	 0.141036707368717 
451	 0.142592050096009 
452	 0.147496734164098 
453	 0.147993108993523 
454	 0.147612567553401 
455	 0.148985908102077 
456	 0.152735449142927 
457	 0.149833490542725 
458	 0.148232009749855 
459	 0.153533272788591 
460	 0.153858169362288 
461	 0.15483738497137 
462	 0.156928654097465 
463	 0.157885728911443 
464	 0.156762977760392 
465	 0.156808584989919 
466	 0.159045312160296 
467	 0.1606512760498 
468	 0.16100054077281 
469	 0.160679611185948 
470	 0.16080837292912 
471	 0.162869893841914 
472	 0.16398549641073 
473	 0.163310018608204 
474	 0.161874255945335 
475	 0.162490380414783 
476	 0.163882133242264 
477	 0.164770180785073 
478	 0.16554715471848 
479	 0.16434881900644 
480	 0.163313740990485 
481	 0.164914274327364 
482	 0.163771122985161 
483	 0.162274749055556 
484	 0.16211694403411 
485	 0.163542254755595 
486	 0.163789435231276 
487	 0.162771049243824 
488	 0.161234227833697 
489	 0.160209223845464 
490	 0.159244880944681 
491	 0.158379321478752 
492	 0.157883218618465 
493	 0.157504617174772 
494	 0.157188776983303 
495	 0.15660164782153 
496	 0.154822105628266 
497	 0.154089559303995 
498	 0.153323924760525 
499	 0.151045010640763 
500	 0.148545163896257 
501	 0.147520984259696 
502	 0.147252579164641 
503	 0.145169682495772 
504	 0.143632854355234 
505	 0.14195382408541 
506	 0.139735593802879 
507	 0.138589015963268 
508	 0.13687043676641 
509	 0.134854018569105 
510	 0.133488483750856 
511	 0.132265640184205 
512	 0.130650542335033 
513	 0.128375750531163 
514	 0.125471525380197 
515	 0.123736737027635 
516	 0.12260027360917 
517	 0.12103355336874 
518	 0.11870476451791 
519	 0.116402895853163 
520	 0.11459322668553 
521	 0.113390019068461 
522	 0.111973022604917 
523	 0.110373836047852 
524	 0.108652456228498 
525	 0.106597859541584 
526	 0.10485777038381 
527	 0.103363932950724 
528	 0.101788017474522 
529	 9.99263307846122E-02 
530	 9.82499723306119E-02 
531	 9.69005749945928E-02 
532	 9.56486914019076E-02 
533	 9.42429137797914E-02 
534	 9.28651709707593E-02 
535	 9.16056903365233E-02 
536	 8.99829112647317E-02 
537	 0.088445686631044 
538	 8.71095147235852E-02 
539	 8.58885089936981E-02 
540	 8.47657170727985E-02 
541	 8.35434181078157E-02 
542	 8.21890226957828E-02 
543	 8.09364013111816E-02 
544	 7.98416998542943E-02 
545	 7.89393590909046E-02 
546	 7.81655476476568E-02 
547	 7.71340801193449E-02 
548	 7.61014813012604E-02 
549	 7.51606944797082E-02 
550	 7.42365552112407E-02 
551	 7.32844356616941E-02 
552	 7.24698102253705E-02 
553	 0.071852279381177 
554	 7.11523335600773E-02 
555	 7.03975943988566E-02 
556	 6.96649177617534E-02 
557	 6.90268156665325E-02 
558	 0.068236171674477 
559	 6.75970705228968E-02 
560	 0.067223583021966 
561	 6.69042746721576E-02 
562	 6.64483023388787E-02 
563	 6.58085622792449E-02 
564	 0.065122670121287 
565	 6.50279876195658E-02 
566	 0.064600644707614 
567	 6.38209714319076E-02 
568	 0.06335229033772 
569	 6.33565171241066E-02 
570	 6.31247641086819E-02 
571	 6.23434003299541E-02 
572	 6.17485812321636E-02 
573	 6.14225526214357E-02 
574	 0.061391619009959 
575	 6.15363790414113E-02 
576	 6.13304996519716E-02 
577	 0.060919443528772 
578	 6.05221499217057E-02 
579	 6.03694812248425E-02 
580	 6.03574618767056E-02 
581	 6.02846602851934E-02 
582	 5.99927453041154E-02 
583	 5.94634210700789E-02 
584	 5.92921413298492E-02 
585	 0.059362889448692 
586	 5.91772260269389E-02 
587	 5.90100894294956E-02 
588	 5.89153637141137E-02 
589	 5.88525176732371E-02 
590	 5.86543624570115E-02 
591	 5.87135388466544E-02 
592	 5.88786211038541E-02 
593	 5.88796806162588E-02 
594	 5.87147104679772E-02 
595	 5.86781786926657E-02 
596	 5.87203911289044E-02 
597	 5.85172952085828E-02 
598	 5.84924133527855E-02 
599	 5.84092143732554E-02 
600	 5.82239167323934E-02 
601	 5.86994120826824E-02 
602	 5.88044724687914E-02 
603	 5.86792911326201E-02 
604	 5.88621701666008E-02 
605	 0.058775766576919 
606	 5.89110800011534E-02 
607	 5.93100882073731E-02 
608	 5.93701983564696E-02 
609	 5.93334159715839E-02 
610	 5.93238097615501E-02 
611	 5.94117538426086E-02 
612	 5.95523173258215E-02 
613	 5.98274372338069E-02 
614	 6.01399141010557E-02 
615	 6.03075690239784E-02 
616	 6.05436738063662E-02 
617	 6.07263632701084E-02 
618	 6.08271678983308E-02 
619	 6.10615744307007E-02 
620	 6.12376083483119E-02 
621	 6.14489501311796E-02 
622	 6.18152315265081E-02 
623	 6.21172842043268E-02 
624	 6.24493870189509E-02 
625	 6.28477191953575E-02 
626	 6.32781106682144E-02 
627	 6.36490996042759E-02 
628	 6.40217111115455E-02 
629	 6.44612749818838E-02 
630	 6.49798818576603E-02 
631	 6.54524957344133E-02 
632	 6.58097403380918E-02 
633	 6.60618050190663E-02 
634	 6.64948091510374E-02 
635	 0.067153890633169 
636	 6.78579923359135E-02 
637	 6.81899203713109E-02 
638	 6.88038734710366E-02 
639	 6.95503109485148E-02 
640	 0.070183483733761 
641	 7.08163514906242E-02 
642	 7.15583661280986E-02 
643	 7.22867169650974E-02 
644	 0.072801660777379 
645	 7.36052046966783E-02 
646	 7.44645158425138E-02 
647	 7.52206896064101E-02 
648	 7.59725657009123E-02 
649	 7.69971731798676E-02 
650	 7.80512951655212E-02 
651	 7.88695578560767E-02 
652	 7.98108642618169E-02 
653	 8.09457585931796E-02 
654	 8.21989684233764E-02 
655	 8.33875766038981E-02 
656	 8.44702556491509E-02 
657	 8.55603126270102E-02 
658	 8.67681662982809E-02 
659	 8.81656346204265E-02 
660	 8.94630344352678E-02 
661	 9.07573011846949E-02 
662	 9.22372730354674E-02 
663	 9.37132540553349E-02 
664	 9.52124633051037E-02 
665	 9.67716166265831E-02 
666	 9.84169162248804E-02 
667	 9.99709126260538E-02 
668	 0.101635590854489 
669	 0.103535524252371 
670	 0.105423004199314 
671	 0.107246727198726 
672	 0.10912842970759 
673	 0.111224266786043 
674	 0.113257457703104 
675	 0.115330719386611 
676	 0.117492068787042 
677	 0.119686599431811 
678	 0.121867030450798 
679	 0.124077736523118 
680	 0.126378626035158 
681	 0.128785204710721 
682	 0.131293619223705 
683	 0.133890519616528 
684	 0.136536699089574 
685	 0.138991802056601 
686	 0.141602111200495 
687	 0.144450985333131 
688	 0.147184875567587 
689	 0.149877962375776 
690	 0.152584924774602 
691	 0.155355431012693 
692	 0.158199361199068 
693	 0.161035267502132 
694	 0.163923742470979 
695	 0.166970542205809 
696	 0.169864149883473 
697	 0.172737933452975 
698	 0.17566878478761 
699	 0.178556100124755 
700	 0.181604214486418 
701	 0.18473285642688 
702	 0.187794467344737 
703	 0.19070082176326 
704	 0.193584346854305 
705	 0.196518963964942 
706	 0.19951581412063 
707	 0.202441503944715 
708	 0.205284462638947 
709	 0.208111993942655 
710	 0.211083327114271 
711	 0.213962923647535 
712	 0.216721767069742 
713	 0.219423238597707 
714	 0.222193822085787 
715	 0.224975318488412 
716	 0.227698086345559 
717	 0.230296895812032 
718	 0.232728920667677 
719	 0.235181858387651 
720	 0.237715852768322 
721	 0.240118042024913 
722	 0.242502989803754 
723	 0.244807837416882 
724	 0.246991344108492 
725	 0.249287115845602 
726	 0.251492147439761 
727	 0.25361075934269 
728	 0.255774407525349 
729	 0.257757377284967 
730	 0.259701098091541 
731	 0.261647747536216 
732	 0.263395309527421 
733	 0.265191389845151 
734	 0.266999562461156 
735	 0.26870429262707 
736	 0.270210357020011 
737	 0.271777435651348 
738	 0.273377466227131 
739	 0.274810649560044 
740	 0.27629197855366 
741	 0.277774790235267 
742	 0.279197100743239 
743	 0.280528322160216 
744	 0.281761763904969 
745	 0.283017451664561 
746	 0.284339950524265 
747	 0.285402162714427 
748	 0.286508203730443 
749	 0.287691905339795 
750	 0.288829503807798 
751	 0.289937911457042 
752	 0.29090597948997 
753	 0.291775333071705 
754	 0.292785671393698 
755	 0.293796453506313 
756	 0.294710467446656 
757	 0.295503924034942 
758	 0.29630836246326 
759	 0.297196706886868 
760	 0.298110480655032 
761	 0.298939142580855 
762	 0.299730734620734 
763	 0.300530242415292 
764	 0.301331873831736 
765	 0.302084488728608 
766	 0.302928093477588 
767	 0.303653249158311 
768	 0.304188001313521 
769	 0.304923612487337 
770	 0.305664330654799 
771	 0.306400399368254 
772	 0.307140011196095 
773	 0.307669589535879 
774	 0.308262642546811 
775	 0.308970994441428 
776	 0.309647901341245 
777	 0.31027997637681 
778	 0.31086306255461 
779	 0.31141340915122 
780	 0.311967167790283 
781	 0.312591162245573 
782	 0.31324595315847 
783	 0.313877360139405 
784	 0.314517510584794 
785	 0.315036088233888 
786	 0.315509863832475 
787	 0.316109322735467 
788	 0.316740548998953 
789	 0.317384780032548 
790	 0.317955812699138 
791	 0.318307199384883 
792	 0.318933480763503 
793	 0.319609279891614 
794	 0.320112720886678 
795	 0.320608702147484 
796	 0.321092024156893 
797	 0.321630162374703 
798	 0.322253896609219 
799	 0.322730321200083 
800	 0.32319786963592 
801	 0.3237068763536 
802	 0.324221707595252 
803	 0.324690648808993 
804	 0.325139096488135 
805	 0.325626980481166 
806	 0.32624561264502 
807	 0.326756017572885 
808	 0.327242645458254 
809	 0.327770462913402 
810	 0.328071155906534 
811	 0.328493690935911 
812	 0.329015061431899 
813	 0.329462201280526 
814	 0.32986685555798 
815	 0.330323921623907 
816	 0.33083712672557 
817	 0.33132333171179 
818	 0.331755763376997 
819	 0.332150417115297 
820	 0.332533751139274 
821	 0.332933472147378 
822	 0.333302411791477 
823	 0.333675198073971 
824	 0.334094406348874 
825	 0.334568373894883 
826	 0.334980239036976 
827	 0.335307505370301 
828	 0.335598703698521 
829	 0.336005723631664 
830	 0.336311433915118 
831	 0.336562620453244 
832	 0.337012119654611 
833	 0.337297770911698 
834	 0.337627492374523 
835	 0.338054527359461 
836	 0.338275968350967 
837	 0.338681179873981 
838	 0.33907759797416 
839	 0.339275722217954 
840	 0.339493968173374 
841	 0.339830566555329 
842	 0.340192432970118 
843	 0.340450120099602 
844	 0.340756122868876 
845	 0.341037213027008 
846	 0.3412670566894 
847	 0.34147756536712 
848	 0.341824053312426 
849	 0.342089395859246 
850	 0.342260861627382 
851	 0.342614519561494 
852	 0.342876677843907 
853	 0.343085337672566 
854	 0.343307820187014 
855	 0.34353247149007 
856	 0.343765758249299 
857	 0.344051358149116 
858	 0.344380600304504 
859	 0.344520342286006 
860	 0.344741603735701 
861	 0.345012373576673 
862	 0.34517383246393 
863	 0.345362595034453 
864	 0.345476083589216 
865	 0.345535382722132 
866	 0.345667763554759 
867	 0.345816785264522 
868	 0.345962069572774 
869	 0.346141821138086 
870	 0.346458456584504 
871	 0.346729396767532 
872	 0.346797872828049 
873	 0.346759002073257 
874	 0.347242791763654 
875	 0.347429148372591 
876	 0.347335742382978 
877	 0.347296211036599 
878	 0.347718345502635 
879	 0.348066513729363 
880	 0.348190659726491 
881	 0.348171995513327 
882	 0.348097009667328 
883	 0.348201289565893 
884	 0.348487749259522 
885	 0.348758378932652 
886	 0.348817030488912 
887	 0.34879605524859 
888	 0.34889509266299 
889	 0.34928638109696 
890	 0.349350292832264 
891	 0.349339059242788 
892	 0.349509972609059 
893	 0.349839775914109 
894	 0.350019545387236 
895	 0.350029298637479 
896	 0.350000928158386 
897	 0.35023442579748 
898	 0.350337776809107 
899	 0.350460068409399 
900	 0.350753556099205 
901	 0.350653931876154 
902	 0.350570360937296 
903	 0.350651819702215 
904	 0.350864565462468 
905	 0.351055383675878 
906	 0.351168024350637 
907	 0.351273567691591 
908	 0.35149235277908 
909	 0.351624603737659 
910	 0.351726899788532 
911	 0.351876444739214 
912	 0.352117079101219 
913	 0.352185065901651 
914	 0.352302834936644 
915	 0.352567343069089 
916	 0.352804553791393 
917	 0.352967715195558 
918	 0.353031893757904 
919	 0.353038779720513 
920	 0.353120305493567 
921	 0.353336353861374 
922	 0.353577004600856 
923	 0.353769625372653 
924	 0.3540867401242 
925	 0.354060983454005 
926	 0.354044049540088 
927	 0.354380309452826 
928	 0.354421549143189 
929	 0.354744042731316 
930	 0.355064152525849 
931	 0.354968418234029 
932	 0.355112508409856 
933	 0.355361061204382 
934	 0.355495209225303 
935	 0.355387297082031 
936	 0.355534682652254 
937	 0.355925761645814 
938	 0.356271546709172 
939	 0.356257142426539 
940	 0.356560080055903 
941	 0.356841526880046 
942	 0.357001045652288 
943	 0.357206190978655 
944	 0.357394994831491 
945	 0.357503954236921 
946	 0.357574005807562 
947	 0.357737420261156 
948	 0.357884778463442 
949	 0.358132443293707 
950	 0.358439368228497 
951	 0.358556348846886 
952	 0.358645586545271 
953	 0.358712111401801 
954	 0.358811846263398 
955	 0.359099971876804 
956	 0.359683209902816 
957	 0.360044024159458 
958	 0.359996860604348 
959	 0.36012436583459 
960	 0.36034232952113 
961	 0.360589293610542 
962	 0.360751927263957 
963	 0.360641352530123 
964	 0.360844177688213 
965	 0.361085225638362 
966	 0.361027736913864 
967	 0.360712842242015 
968	 0.361243743686622 
969	 0.36174968348704 
970	 0.361506029742252 
971	 0.361632001526458 
972	 0.362009843405459 
973	 0.362295757768283 
974	 0.36231891875555 
975	 0.362655969884301 
976	 0.362668970211826 
977	 0.362758356248591 
978	 0.36320927090878 
979	 0.362929626367268 
980	 0.362748076078482 
981	 0.362941065856781 
982	 0.36346760526414 
983	 0.364028848230766 
984	 0.363905941241253 
985	 0.36381539389765 
986	 0.364362861995769 
987	 0.363982110603882 
988	 0.363694053650957 
989	 0.364038980031888 
990	 0.364876026798106 
991	 0.364494522552031 
992	 0.364809436110452 
993	 0.365421780915258 
994	 0.365410401873587 
995	 0.365150806762864 
996	 0.365220872245729 
997	 0.365644985681526 
998	 0.3661101328087 
999	 0.366063031787896 
1000	 0.366064745592708 
1001	 0.364668703593853 
1002	 0.364939176916031 
1003	 0.364912915902831 
1004	 0.365018242499392 
1005	 0.365138201529404 
1006	 0.365221942361414 
1007	 0.365328071760296 
1008	 0.365433581875991 
1009	 0.365366221638629 
1010	 0.365520371880256 
1011	 0.365978775125168 
1012	 0.366092611339624 
1013	 0.366068938616122 
1014	 0.366193736132717 
1015	 0.366260953033065 
1016	 0.366176719052135 
1017	 0.36636711322702 
1018	 0.366676575373156 
1019	 0.366725916072768 
1020	 0.366718712188 
1021	 0.366842563033465 
1022	 0.367005314522655 
1023	 0.367136352671954 
1024	 0.367362350193134 
1025	 0.367538350714921 
1026	 0.367676168080677 
1027	 0.367732895903261 
1028	 0.367693050978705 
1029	 0.36777295362706 
1030	 0.367927921674609 
1031	 0.36813925354467 
1032	 0.368325711726504 
1033	 0.368342752152702 
1034	 0.368160794599467 
1035	 0.368014467734939 
1036	 0.368034896939561 
1037	 0.36826930157724 
1038	 0.368322688770158 
1039	 0.368336939935557 
1040	 0.368394972689414 
1041	 0.368341603264313 
1042	 0.368408188272169 
1043	 0.368548411568488 
1044	 0.368869484312847 
1045	 0.369104598452788 
1046	 0.369037743997736 
1047	 0.369064600568205 
1048	 0.369179126712597 
1049	 0.36912116080538 
1050	 0.369262753337603 
1051	 0.369473387978725 
1052	 0.369546829678767 
1053	 0.369652712878405 
1054	 0.369829311405732 
1055	 0.36990356073692 
1056	 0.369893444156188 
1057	 0.369930604259249 
1058	 0.369908130377267 
1059	 0.370004746722679 
1060	 0.370094718302214 
1061	 0.370109033743938 
1062	 0.370282017828189 
1063	 0.370309985291436 
1064	 0.370359233217515 
1065	 0.37057942774967 
1066	 0.370629266514932 
1067	 0.370750093546607 
1068	 0.370794027740058 
1069	 0.370774640717276 
1070	 0.370877287139604 
1071	 0.371009036183808 
1072	 0.371118340789683 
1073	 0.371381804618772 
1074	 0.371595659276769 
1075	 0.371705362310544 
1076	 0.371813004741963 
1077	 0.371870813578834 
1078	 0.371957180937436 
1079	 0.372002534825916 
1080	 0.372156508760656 
1081	 0.372363540117199 
1082	 0.372510330465294 
1083	 0.372723357198227 
1084	 0.372859556070374 
1085	 0.372893771730639 
1086	 0.37291312876319 
1087	 0.372888362031458 
1088	 0.372881924356164 
1089	 0.372960719332751 
1090	 0.373089039600112 
1091	 0.373286706698399 
1092	 0.373387291459976 
1093	 0.373409707795196 
1094	 0.373531924078998 
1095	 0.373603618813221 
1096	 0.373730237068911 
1097	 0.373924217358115 
1098	 0.374068423863131 
1099	 0.374270656636048 
1100	 0.374357409080422 
1101	 0.374396307630521 
1102	 0.374440770079968 
1103	 0.374508659803585 
1104	 0.374501861158422 
1105	 0.374746303607666 
1106	 0.375051837777162 
1107	 0.375265868389321 
1108	 0.375545496371513 
1109	 0.37572784636651 
1110	 0.375872361471149 
1111	 0.376009676359553 
1112	 0.376077071808095 
1113	 0.376196524198533 
1114	 0.376260267660443 
1115	 0.376321684632951 
1116	 0.376518389375358 
1117	 0.376630220475492 
1118	 0.376738972912341 
1119	 0.376866738657234 
1120	 0.377031261805387 
1121	 0.377163292598975 
1122	 0.37731226433897 
1123	 0.377631927082421 
1124	 0.37781691638962 
1125	 0.377859545026787 
1126	 0.378004177395139 
1127	 0.378182332138582 
1128	 0.378303136560923 
1129	 0.378515366381964 
1130	 0.378799277530901 
1131	 0.378943804745205 
1132	 0.379026424169891 
1133	 0.379175186489636 
1134	 0.379255078329206 
1135	 0.379388927303456 
1136	 0.379562526834969 
1137	 0.379761092046638 
1138	 0.380039866162927 
1139	 0.380188258788257 
1140	 0.380316980881225 
1141	 0.380344614200474 
1142	 0.380345644600973 
1143	 0.380451417909331 
1144	 0.38060347895468 
1145	 0.380734726712362 
1146	 0.380853713015251 
1147	 0.38098875455416 
1148	 0.381038146657052 
1149	 0.381117223953632 
1150	 0.381222366361144 
1151	 0.381260453709712 
1152	 0.381361141733175 
1153	 0.381561461771111 
1154	 0.381633682114276 
1155	 0.381644587224251 
1156	 0.381704123300441 
1157	 0.381729625146165 
1158	 0.381780855013831 
1159	 0.381856024257545 
1160	 0.381960717476688 
1161	 0.382060621720617 
1162	 0.382101132013227 
1163	 0.38219591677515 
1164	 0.382235169447699 
1165	 0.382267733794028 
1166	 0.382344294991689 
1167	 0.382393542064456 
1168	 0.382471907557797 
1169	 0.382550586770033 
1170	 0.382629435056665 
1171	 0.382691387656907 
1172	 0.382752422602231 
1173	 0.382831177523839 
1174	 0.382946526261643 
1175	 0.382972120829541 
1176	 0.382910174590215 
1177	 0.382937439352896 
1178	 0.382939707129338 
1179	 0.382981193978707 
1180	 0.38307709796911 
1181	 0.383245026919937 
1182	 0.383257999377916 
1183	 0.383242049161505 
1184	 0.38332953169284 
1185	 0.383383403357314 
1186	 0.383493014780754 
1187	 0.383703083981591 
1188	 0.383827035608485 
1189	 0.383969880775241 
1190	 0.384018304532093 
1191	 0.383946512353246 
1192	 0.38398670663772 
1193	 0.383958081842693 
1194	 0.384046673603407 
1195	 0.384300761680661 
1196	 0.384499053452372 
1197	 0.384716850566775 
1198	 0.384921694933073 
1199	 0.385122495814442 
1200	 0.385307546201838 
1201	 0.385487317281474 
1202	 0.385712669315355 
1203	 0.38599864978503 
1204	 0.386307642532952 
1205	 0.386617287323685 
1206	 0.386986570708246 
1207	 0.387284719643664 
1208	 0.387498424420085 
1209	 0.387828690749901 
1210	 0.38815221872411 
1211	 0.388582238708777 
1212	 0.389139907649905 
1213	 0.389681252165781 
1214	 0.390261724834204 
1215	 0.390845899036838 
1216	 0.391446077637725 
1217	 0.3920724222561 
1218	 0.392712863070116 
1219	 0.393384701862964 
1220	 0.394107436212405 
1221	 0.394851182709747 
1222	 0.395533039048447 
1223	 0.396224465611866 
1224	 0.396943206722127 
1225	 0.397673236070189 
1226	 0.398331251282105 
1227	 0.398999921207779 
1228	 0.399658750670984 
1229	 0.400249139437464 
1230	 0.400840397559022 
1231	 0.401484820810993 
1232	 0.402050239074725 
1233	 0.402509969501118 
1234	 0.403024414869146 
1235	 0.403505832743067 
1236	 0.404042556865994 
1237	 0.404654842192726 
1238	 0.405213930302937 
1239	 0.405754543442698 
1240	 0.406382098724958 
1241	 0.406838289417423 
1242	 0.407174174863843 
1243	 0.407631620574636 
1244	 0.408051347362737 
1245	 0.408537232564605 
1246	 0.409136208541056 
1247	 0.409648902808953 
1248	 0.410154520706215 
1249	 0.410608991356267 
1250	 0.410990248453525 
1251	 0.411443519464872 
1252	 0.411907895150298 
1253	 0.412348944102968 
1254	 0.412826125416439 
1255	 0.413288602328541 
1256	 0.413713487761665 
1257	 0.414134879863667 
1258	 0.41458479837317 
1259	 0.415000982716742 
1260	 0.415335032344884 
1261	 0.4157359157846 
1262	 0.416198849060927 
1263	 0.416615807063829 
1264	 0.417018309010436 
1265	 0.417445270186338 
1266	 0.417824778617874 
1267	 0.418139294591166 
1268	 0.41849096185334 
1269	 0.418882135498588 
1270	 0.419192744639242 
1271	 0.419413754091919 
1272	 0.419745553232622 
1273	 0.420083540411657 
1274	 0.420434268433874 
1275	 0.420900318997301 
1276	 0.421268978304802 
1277	 0.421542453401271 
1278	 0.42188120703658 
1279	 0.422257255246997 
1280	 0.42258564571618 
1281	 0.42286943505773 
1282	 0.423220582073637 
1283	 0.42353270635803 
1284	 0.423913558509306 
1285	 0.424352355610994 
1286	 0.424937534581346 
1287	 0.425323331786836 
1288	 0.425673317896954 
1289	 0.425998577254894 
1290	 0.42618147870976 
1291	 0.426518268872186 
1292	 0.426935681123418 
1293	 0.427299880497963 
1294	 0.427680390905547 
1295	 0.428068014523828 
1296	 0.428441208144477 
1297	 0.42881803714593 
1298	 0.429231726742314 
1299	 0.429614041436531 
1300	 0.429969033794841 
1301	 0.430321572126768 
1302	 0.430653150101778 
1303	 0.431008943814141 
1304	 0.4313722160399 
1305	 0.43172526038343 
1306	 0.432128598655806 
1307	 0.432467075288843 
1308	 0.432717172754718 
1309	 0.433023362162201 
1310	 0.433315819916538 
1311	 0.433558879720844 
1312	 0.433900856422803 
1313	 0.434311419186991 
1314	 0.434674108336586 
1315	 0.435072334666733 
1316	 0.435420624340223 
1317	 0.435756520588674 
1318	 0.436036420327214 
1319	 0.436243806797584 
1320	 0.436524911057761 
1321	 0.4367657777146 
1322	 0.437070731598977 
1323	 0.437476509085469 
1324	 0.437824018032643 
1325	 0.438172750043001 
1326	 0.438495351071836 
1327	 0.438786799598455 
1328	 0.439089052889323 
1329	 0.439398769347727 
1330	 0.439675894984223 
1331	 0.439955952952005 
1332	 0.440201501439182 
1333	 0.44035118242698 
1334	 0.440575103911185 
1335	 0.440822561680355 
1336	 0.441103718223383 
1337	 0.44131317782424 
1338	 0.441516675576176 
1339	 0.441761392564044 
1340	 0.44195952522647 
1341	 0.44220894983234 
1342	 0.442566767226154 
1343	 0.442814911283113 
1344	 0.443013915621661 
1345	 0.443204503697584 
1346	 0.44337598505981 
1347	 0.443518853713008 
1348	 0.443624975191125 
1349	 0.443738014881587 
1350	 0.443838829003397 
1351	 0.443925900584971 
1352	 0.443984435671179 
1353	 0.444073520106691 
1354	 0.444182833941772 
1355	 0.444260384189933 
1356	 0.444352988358412 
1357	 0.444420742334314 
1358	 0.444417652837296 
1359	 0.444461882012072 
1360	 0.444505301597228 
1361	 0.444611137583053 
1362	 0.444715829259144 
1363	 0.444728879734778 
1364	 0.444750354069715 
1365	 0.444730624179185 
1366	 0.44473279774391 
1367	 0.444742573145727 
1368	 0.444721451082934 
1369	 0.444713502784931 
1370	 0.444625808322827 
1371	 0.444484842680631 
1372	 0.444343099894444 
1373	 0.444131949745749 
1374	 0.44398054436661 
1375	 0.443865816833176 
1376	 0.443701569690561 
1377	 0.443524517530948 
1378	 0.443356702611743 
1379	 0.443187996850922 
1380	 0.442976251524027 
1381	 0.442766441771627 
1382	 0.442528367976294 
1383	 0.442218230278709 
1384	 0.44193497221148 
1385	 0.441668099260235 
1386	 0.441387261060451 
1387	 0.441094739791931 
1388	 0.440803892124203 
1389	 0.440483745897988 
1390	 0.440206645705138 
1391	 0.43990553147684 
1392	 0.439681655769782 
1393	 0.439569169949254 
1394	 0.43945498793041 
1395	 0.439352906561139 
1396	 0.439331058429772 
1397	 0.439220958999798 
1398	 0.439102231084681 
1399	 0.438887409739493 
1400	 0.438669906179454 
1401	 0.438291558514482 
1402	 0.437764126491393 
1403	 0.437260235301 
1404	 0.436673738226661 
1405	 0.436078566442295 
1406	 0.43551654790996 
1407	 0.434826741268252 
1408	 0.434006749243642 
1409	 0.433235290763502 
1410	 0.432393967776326 
1411	 0.43159685611178 
1412	 0.430831081014474 
1413	 0.430069428899213 
1414	 0.429290125147476 
1415	 0.428551701393894 
1416	 0.42785309635418 
1417	 0.427145077692409 
1418	 0.426434333599103 
1419	 0.425762333072196 
1420	 0.425105966459209 
1421	 0.424467340628075 
1422	 0.423856989399639 
1423	 0.423270055277518 
1424	 0.422723985282505 
1425	 0.422139926285407 
1426	 0.421599665891368 
1427	 0.421077430287276 
1428	 0.420512757622227 
1429	 0.420010888910378 
1430	 0.419492890514168 
1431	 0.418997553989064 
1432	 0.418458494081829 
1433	 0.417897362002718 
1434	 0.417363970583997 
1435	 0.416861075779832 
1436	 0.416246349245988 
1437	 0.415629634792936 
1438	 0.414929903499748 
1439	 0.41404592625529 
1440	 0.413340628343836 
1441	 0.412662528456025 
1442	 0.412031887261695 
1443	 0.411390615848386 
1444	 0.410965555531844 
1445	 0.410570053518858 
1446	 0.410421608990266 
1447	 0.410477801423684 
1448	 0.410706243041933 
1449	 0.411094923707195 
1450	 0.411673571905474 
1451	 0.412503128483088 
1452	 0.413414351780261 
1453	 0.414582816948894 
1454	 0.415659300140712 
1455	 0.416856039023086 
1456	 0.417952966408616 
1457	 0.418963844124964 
1458	 0.420008535005692 
1459	 0.421061586848042 
1460	 0.422073401426734 
1461	 0.4231021766432 
1462	 0.424063226599868 
1463	 0.424955921963339 
1464	 0.425831336507808 
1465	 0.426638868440619 
1466	 0.427483983896423 
1467	 0.428309347326134 
1468	 0.429047821090688 
1469	 0.429737363752208 
1470	 0.430398537422679 
1471	 0.431075078278685 
1472	 0.431717080342515 
1473	 0.432375021894823 
1474	 0.433065906625069 
1475	 0.433700086889568 
1476	 0.434320269977356 
1477	 0.43487642336633 
1478	 0.435395217160612 
1479	 0.435873718490481 
1480	 0.436288812541979 
1481	 0.43670076479765 
1482	 0.437100171864515 
1483	 0.437452985578398 
1484	 0.437774398597856 
1485	 0.438059782452068 
1486	 0.438282260171878 
1487	 0.438523005872786 
1488	 0.438687989908572 
1489	 0.438981910424405 
1490	 0.439289827356608 
1491	 0.439709858177867 
1492	 0.440228291586213 
1493	 0.440804202985733 
1494	 0.441482118973158 
1495	 0.442163846790431 
1496	 0.442923056473476 
1497	 0.443671615080454 
1498	 0.444426889928654 
1499	 0.445207865196298 
1500	 0.44600557040033 
1501	 0.446827221808826 
1502	 0.447695052420325 
1503	 0.44853763692931 
1504	 0.44941703614032 
1505	 0.450241891914617 
1506	 0.451074869751314 
1507	 0.451811907456054 
1508	 0.452475747161884 
1509	 0.453115151521138 
1510	 0.45367100814309 
1511	 0.454217323314893 
1512	 0.454742767284134 
1513	 0.455242515113675 
1514	 0.455748679214327 
1515	 0.456174038580731 
1516	 0.456493853192523 
1517	 0.456863875550923 
1518	 0.457207483237609 
1519	 0.457536857551177 
1520	 0.457908307162581 
1521	 0.458268819234802 
1522	 0.458538713949834 
1523	 0.458759739155542 
1524	 0.458945193013975 
1525	 0.459059707013667 
1526	 0.459251584371491 
1527	 0.459433889789887 
1528	 0.459623989425012 
1529	 0.459860359395722 
1530	 0.460055798001227 
1531	 0.460211467801247 
1532	 0.460402057008191 
1533	 0.460623508710629 
1534	 0.46079776197456 
1535	 0.460954538794148 
1536	 0.461115006572862 
1537	 0.4612190982806 
1538	 0.461432087839391 
1539	 0.461666465405815 
1540	 0.46198603394002 
1541	 0.462396159036015 
1542	 0.462808878172109 
1543	 0.463271143284826 
1544	 0.463749921900064 
1545	 0.464237794120104 
1546	 0.464793106114599 
1547	 0.465429053500235 
1548	 0.466013401977016 
1549	 0.466606887822069 
1550	 0.467230597046622 
1551	 0.467829917958728 
1552	 0.468480563130329 
1553	 0.469235354778878 
1554	 0.469885197012887 
1555	 0.470510290465698 
1556	 0.471106727140248 
1557	 0.471622057539181 
1558	 0.47220223169303 
1559	 0.472807902073617 
1560	 0.47338471577434 
1561	 0.473968940502424 
1562	 0.474550668472432 
1563	 0.475135911435114 
1564	 0.475667896992037 
1565	 0.476184135333078 
1566	 0.4766913522631 
1567	 0.477135557442717 
1568	 0.477608184116062 
1569	 0.478086734302836 
1570	 0.478589351274119 
1571	 0.479089828735641 
1572	 0.479610981364885 
1573	 0.480193871384084 
1574	 0.480722660584926 
1575	 0.481250295361242 
1576	 0.481735500199262 
1577	 0.482149329918206 
1578	 0.482617758992444 
1579	 0.483101339099957 
1580	 0.483555010299182 
1581	 0.484015207459586 
1582	 0.484480884373722 
1583	 0.484940692225466 
1584	 0.485366055203789 
1585	 0.485774652246346 
1586	 0.486207981791811 
1587	 0.486612840275223 
1588	 0.487026982967272 
1589	 0.487507682855354 
1590	 0.487925278804068 
1591	 0.48825699781297 
1592	 0.488655846535336 
1593	 0.489075899790962 
1594	 0.489488686429731 
1595	 0.489950160001763 
1596	 0.490368681228802 
1597	 0.490717926091997 
1598	 0.491132097475896 
1599	 0.491583696232002 
1600	 0.492015227716206 
1601	 0.492510595594158 
1602	 0.49292503163282 
1603	 0.493241970751646 
1604	 0.493617693556366 
1605	 0.493990168653698 
1606	 0.494364004010025 
1607	 0.494793626129898 
1608	 0.495173937440089 
1609	 0.495504442410084 
1610	 0.495854172376473 
1611	 0.496190054194256 
1612	 0.496532468594451 
1613	 0.496915756449628 
1614	 0.497241026773853 
1615	 0.497531227845357 
1616	 0.497823642238865 
1617	 0.498043664369826 
1618	 0.498326062295972 
1619	 0.498693285277161 
1620	 0.498978361761805 
1621	 0.499263074590583 
1622	 0.499512728972668 
1623	 0.499690825565386 
1624	 0.499865283130547 
1625	 0.500016550910759 
1626	 0.500176349769215 
1627	 0.500276862836004 
1628	 0.500442927928882 
1629	 0.500699432785878 
1630	 0.500889855382205 
1631	 0.501066348298731 
1632	 0.501258886202621 
1633	 0.50141547753372 
1634	 0.50157709231796 
1635	 0.50174119696105 
1636	 0.501945155293147 
1637	 0.502185556466564 
1638	 0.502388365887568 
1639	 0.50263288597421 
1640	 0.502833491702764 
1641	 0.502958681428289 
1642	 0.503093702148831 
1643	 0.503247043980425 
1644	 0.503359167026505 
1645	 0.503456194982472 
1646	 0.503522682321692 
1647	 0.503513961953679 
1648	 0.503546093783513 
1649	 0.503599880517011 
1650	 0.503614859878945 
1651	 0.503658069339648 
1652	 0.503651904077661 
1653	 0.503573175945438 
1654	 0.503505569141119 
1655	 0.503484131124657 
1656	 0.503330612547515 
1657	 0.503106368460635 
1658	 0.502845292849617 
1659	 0.502418715373533 
1660	 0.502107500429521 
1661	 0.501905230670519 
1662	 0.501567151452033 
1663	 0.501237070804392 
1664	 0.500806202108532 
1665	 0.500233940815746 
1666	 0.499643408025258 
1667	 0.49906580886526 
1668	 0.498345592339872 
1669	 0.497529740815004 
1670	 0.496625641239046 
1671	 0.495585627764591 
1672	 0.494507186186214 
1673	 0.493369447170035 
1674	 0.492153937073513 
1675	 0.490890178715863 
1676	 0.48952771991511 
1677	 0.488065749979921 
1678	 0.486541599001287 
1679	 0.48490047554941 
1680	 0.483250707054379 
1681	 0.481570153851198 
1682	 0.479794891186044 
1683	 0.477975933661485 
1684	 0.476095800967743 
1685	 0.474150719944268 
1686	 0.472113315246505 
1687	 0.469975139433793 
1688	 0.467788164550407 
1689	 0.465497314916137 
1690	 0.46316730049957 
1691	 0.460830991447744 
1692	 0.458456238172651 
1693	 0.456026693373142 
1694	 0.453519131201047 
1695	 0.450916391782857 
1696	 0.448302390340784 
1697	 0.445627191460337 
1698	 0.442910173618424 
1699	 0.440166541282722 
1700	 0.43750143848411 
1701	 0.434812125396743 
1702	 0.432137803084603 
1703	 0.429464687183383 
1704	 0.426899274284954 
1705	 0.424250070694421 
1706	 0.421897063143447 
1707	 0.419852837614848 
1708	 0.417891951230111 
1709	 0.416095505014276 
1710	 0.414425042908188 
1711	 0.412743540764813 
1712	 0.411171469637102 
1713	 0.409672973830239 
1714	 0.408279944425289 
1715	 0.407058584048949 
1716	 0.405969840616774 
1717	 0.404917734988659 
1718	 0.403753053716123 
1719	 0.402606506900599 
1720	 0.401558014004511 
1721	 0.400524754700222 
1722	 0.399585501337042 
1723	 0.398740155143637 
1724	 0.397898066940725 
1725	 0.397212643710699 
1726	 0.396715836138687 
1727	 0.396430613061222 
1728	 0.396325524837829 
1729	 0.39630805022807 
1730	 0.396583071405635 
1731	 0.397165052130143 
1732	 0.398014321197377 
1733	 0.399042826894413 
1734	 0.400134461486046 
1735	 0.401324763592789 
1736	 0.402485886273442 
1737	 0.403547950637985 
1738	 0.40457756593378 
1739	 0.405362213565207 
1740	 0.405965648423425 
1741	 0.406447967913485 
1742	 0.406770798601636 
1743	 0.406954097922428 
1744	 0.406916119704071 
1745	 0.406864490553706 
1746	 0.406662471296484 
1747	 0.406517705012742 
1748	 0.406313607741372 
1749	 0.406211650579712 
1750	 0.406127731213579 
1751	 0.406142169771504 
1752	 0.406231101524822 
1753	 0.406410641911577 
1754	 0.406635978584844 
1755	 0.406971512600566 
1756	 0.407377158512924 
1757	 0.407967755399106 
1758	 0.408740975302565 
1759	 0.409660622625202 
1760	 0.410684592649316 
1761	 0.411774474282235 
1762	 0.412972798962024 
1763	 0.414359733549406 
1764	 0.415871231395456 
1765	 0.417438755027356 
1766	 0.419145206643519 
1767	 0.420827515533042 
1768	 0.42258283899434 
1769	 0.424417583561088 
1770	 0.426166919913023 
1771	 0.42804910239288 
1772	 0.429859791302547 
1773	 0.431563689785905 
1774	 0.433276546091203 
1775	 0.43472096203692 
1776	 0.436026130671909 
1777	 0.437272341004577 
1778	 0.438446018440951 
1779	 0.439580165807666 
1780	 0.440609094964651 
1781	 0.441613650847899 
1782	 0.442533731894705 
1783	 0.443402086729559 
1784	 0.444361773766082 
1785	 0.445303378838323 
1786	 0.446044265929975 
1787	 0.446608132632203 
1788	 0.447221565993733 
1789	 0.447741412751231 
1790	 0.448338272994806 
1791	 0.449002855168146 
1792	 0.449626944721997 
1793	 0.450192164266867 
1794	 0.450777807831699 
1795	 0.451396654608121 
1796	 0.451896200490352 
1797	 0.452369118944992 
1798	 0.45271109353669 
1799	 0.453029103180811 
1800	 0.453496565790805 
1801	 0.452903552038803 
1802	 0.453360758087775 
1803	 0.453805236620422 
1804	 0.454273564705429 
1805	 0.454754161629813 
1806	 0.45519551818686 
1807	 0.455601987995584 
1808	 0.455994699908322 
1809	 0.4563627213548 
1810	 0.456771949194939 
1811	 0.457168572786051 
1812	 0.457574679373394 
1813	 0.458023887910097 
1814	 0.458446031946965 
1815	 0.458850177493735 
1816	 0.459303414443407 
1817	 0.459765846047939 
1818	 0.460261359865245 
1819	 0.460734797380601 
1820	 0.461214670460321 
1821	 0.461687450326244 
1822	 0.46210189803726 
1823	 0.462660702994083 
1824	 0.463181685363191 
1825	 0.463618271836813 
1826	 0.464075543797715 
1827	 0.464537023877047 
1828	 0.464955004594175 
1829	 0.46533025988392 
1830	 0.4657240870298 
1831	 0.466087248547291 
1832	 0.466515143883979 
1833	 0.46687860048674 
1834	 0.467253061306322 
1835	 0.467660067562106 
1836	 0.467938878617717 
1837	 0.46831301682412 
1838	 0.468760605490868 
1839	 0.469139826428639 
1840	 0.4695456403621 
1841	 0.469893686352841 
1842	 0.470197857480546 
1843	 0.470401220435596 
1844	 0.47069923306534 
1845	 0.471032225507833 
1846	 0.47128057517713 
1847	 0.471612534137857 
1848	 0.471842306619343 
1849	 0.471982847223301 
1850	 0.472106993183434 
1851	 0.472219333700513 
1852	 0.472262733869815 
1853	 0.472238395531797 
1854	 0.472246769657946 
1855	 0.472213247023441 
1856	 0.472178539782851 
1857	 0.472105597424627 
1858	 0.471980846261058 
1859	 0.471723454165572 
1860	 0.471349080147982 
1861	 0.470886749356625 
1862	 0.470306109364581 
1863	 0.46967776509185 
1864	 0.469025591298621 
1865	 0.468363528916183 
1866	 0.467606469166935 
1867	 0.466766533042042 
1868	 0.465885750870642 
1869	 0.464951273509346 
1870	 0.463969706440417 
1871	 0.463005685222354 
1872	 0.461913609757504 
1873	 0.460755886902858 
1874	 0.45952148608749 
1875	 0.458146231636321 
1876	 0.456608073626481 
1877	 0.45502830085171 
1878	 0.453305374735066 
1879	 0.451478695633389 
1880	 0.449731762071332 
1881	 0.447802414282087 
1882	 0.445743115980793 
1883	 0.443608231115738 
1884	 0.441367620597892 
1885	 0.438799526141118 
1886	 0.4362108748268 
1887	 0.433482332415672 
1888	 0.430553232014567 
1889	 0.427781965037506 
1890	 0.424888271516206 
1891	 0.421841483072799 
1892	 0.418752977560293 
1893	 0.415612387220682 
1894	 0.412324828775049 
1895	 0.409134919534296 
1896	 0.405900925267332 
1897	 0.402677603173024 
1898	 0.399640109210036 
1899	 0.396513677307256 
1900	 0.393541715389713 
1901	 0.390664924795694 
1902	 0.387630575800465 
1903	 0.384726716334545 
1904	 0.381929725439728 
1905	 0.379136048464757 
1906	 0.376518669356357 
1907	 0.374251464017882 
1908	 0.372021430443988 
1909	 0.369887482946428 
1910	 0.367903519854293 
1911	 0.365878620836414 
1912	 0.3640278648133 
1913	 0.362278405551595 
1914	 0.360488553236499 
1915	 0.358810303422014 
1916	 0.357234086900884 
1917	 0.355635044754776 
1918	 0.354138119817142 
1919	 0.352749389046934 
1920	 0.351265989793523 
1921	 0.349922672336511 
1922	 0.348512886192086 
1923	 0.347022084292699 
1924	 0.345752466252709 
1925	 0.344423585411388 
1926	 0.343166650442179 
1927	 0.342016856168617 
1928	 0.340883287451862 
1929	 0.339756343755399 
1930	 0.338693650236621 
1931	 0.337680093305133 
1932	 0.336689162060849 
1933	 0.335812168607447 
1934	 0.334992302797519 
1935	 0.334322466742031 
1936	 0.333804391908198 
1937	 0.333348249085894 
1938	 0.332971598755148 
1939	 0.332769012520244 
1940	 0.332689642328239 
1941	 0.332685969958854 
1942	 0.332833453905035 
1943	 0.33311975754013 
1944	 0.333416664467126 
1945	 0.333739779159844 
1946	 0.334180333100806 
1947	 0.334630881081507 
1948	 0.335178656947874 
1949	 0.335957425443141 
1950	 0.33680324475338 
1951	 0.33779532569848 
1952	 0.338853215597648 
1953	 0.340026663932555 
1954	 0.341213258383531 
1955	 0.34253550398374 
1956	 0.343958491127302 
1957	 0.345443382695072 
1958	 0.346939575162598 
1959	 0.348261850743164 
1960	 0.349558188120911 
1961	 0.350758185388366 
1962	 0.351786584643488 
1963	 0.352849367051997 
1964	 0.353942792422089 
1965	 0.354869799389576 
1966	 0.35570069043615 
1967	 0.356517530837425 
1968	 0.357201582230255 
1969	 0.357828906081383 
1970	 0.358399364298769 
1971	 0.358982771405435 
1972	 0.359631783805212 
1973	 0.360298011410768 
1974	 0.361013453458754 
1975	 0.361856477051024 
1976	 0.362616268201085 
1977	 0.363319565490174 
1978	 0.364103318815444 
1979	 0.364853524945321 
1980	 0.365744271616861 
1981	 0.36677223265239 
1982	 0.367723034284965 
1983	 0.368788035534189 
1984	 0.369821230665259 
1985	 0.370666749098624 
1986	 0.37165511213016 
1987	 0.372712420161311 
1988	 0.373702642742508 
1989	 0.374922474552899 
1990	 0.376334064891429 
1991	 0.377770421786695 
1992	 0.379284841792627 
1993	 0.381011928533105 
1994	 0.382592444473846 
1995	 0.384349247518993 
1996	 0.386178692978075 
1997	 0.387945181928156 
1998	 0.389796620868455 
1999	 0.391765459361151 
2000	 0.393627251526243 
2001	 0.395540616065959 
2002	 0.397336444669712 
2003	 0.399115994163492 
2004	 0.400779374665626 
2005	 0.402308425726574 
2006	 0.403800844723349 
2007	 0.40524657270479 
2008	 0.406589096973107 
2009	 0.407848978322234 
2010	 0.409018106774738 
2011	 0.410017745837198 
2012	 0.410949446748203 
2013	 0.411829182600072 
2014	 0.412623413214329 
2015	 0.413395018601414 
2016	 0.414119536257452 
2017	 0.414767821541211 
2018	 0.41539262873282 
2019	 0.415909347236401 
2020	 0.416312353597994 
2021	 0.416700305951547 
2022	 0.416975431727863 
2023	 0.417161713164449 
2024	 0.417395353121921 
2025	 0.417595200461835 
2026	 0.417695096882935 
2027	 0.417777986714147 
2028	 0.417766697784311 
2029	 0.417585134992117 
2030	 0.417458097205182 
2031	 0.417289042083346 
2032	 0.417152316546219 
2033	 0.417019138833436 
2034	 0.416883847483721 
2035	 0.416770339586073 
2036	 0.416636525553952 
2037	 0.416483935151251 
2038	 0.416346886819623 
2039	 0.416190622605995 
2040	 0.41604831301425 
2041	 0.415867816304231 
2042	 0.415625762150311 
2043	 0.415440038374231 
2044	 0.415244146491155 
2045	 0.415072804611252 
2046	 0.414955815212605 
2047	 0.414828270127257 
2048	 0.414683009410156 
2049	 0.414574444419936 
2050	 0.414510278278337 
2051	 0.414405017326894 
2052	 0.414346433563107 
2053	 0.414294829353864 
2054	 0.414180531147117 
2055	 0.414031369524683 
2056	 0.413899708266494 
2057	 0.413698167156807 
2058	 0.413584149868432 
2059	 0.413550700482412 
2060	 0.413437893781875 
2061	 0.413342975028284 
2062	 0.413200283915388 
2063	 0.412945329534557 
2064	 0.412787002737864 
2065	 0.41263731498304 
2066	 0.412545798374212 
2067	 0.412526319864081 
2068	 0.412429412197385 
2069	 0.412337417142039 
2070	 0.412223565210211 
2071	 0.412147715615146 
2072	 0.412073377388096 
2073	 0.412012498126172 
2074	 0.411982774810065 
2075	 0.411930668881894 
2076	 0.41191140694234 
2077	 0.411805008999744 
2078	 0.411664293019962 
2079	 0.411509326938814 
2080	 0.411243487071753 
2081	 0.411043864889208 
2082	 0.410884401643411 
2083	 0.410699802012128 
2084	 0.41055958280863 
2085	 0.41044166832779 
2086	 0.41023112113747 
2087	 0.409991408143052 
2088	 0.409717871482326 
2089	 0.409327879427605 
2090	 0.40904325731392 
2091	 0.408834852008434 
2092	 0.408524197224272 
2093	 0.408211482521127 
2094	 0.407864594510084 
2095	 0.407377671225963 
2096	 0.406993090991732 
2097	 0.40668162936482 
2098	 0.406341951146104 
2099	 0.405959330480368 
2100	 0.405675257428536 
2101	 0.405219087472162 
2102	 0.404623419358556 
2103	 0.404146600986988 
2104	 0.403628740490914 
2105	 0.403149695334488 
2106	 0.402778525913938 
2107	 0.402302977107974 
2108	 0.401755915598152 
2109	 0.401248483770894 
2110	 0.40076432499159 
2111	 0.400224935808134 
2112	 0.399718459670233 
2113	 0.399110857904775 
2114	 0.398298974933049 
2115	 0.397630847084794 
2116	 0.39703803967587 
2117	 0.396356320290584 
2118	 0.395734420135334 
2119	 0.395238232254756 
2120	 0.394604713727913 
2121	 0.393883132538156 
2122	 0.393216697833641 
2123	 0.392488432785035 
2124	 0.391889552008393 
2125	 0.391359009035138 
2126	 0.390818086257302 
2127	 0.390371949188021 
2128	 0.389882749969983 
2129	 0.389319196805851 
2130	 0.388851189039639 
2131	 0.388484973115361 
2132	 0.38804171176001 
2133	 0.387557783210324 
2134	 0.387168315052827 
2135	 0.386709131132451 
2136	 0.386276206228025 
2137	 0.385904919661854 
2138	 0.385603825288274 
2139	 0.385304664404887 
2140	 0.385027492359427 
2141	 0.384773661058446 
2142	 0.384590280548839 
2143	 0.38435503776901 
2144	 0.384064973422766 
2145	 0.383881526042825 
2146	 0.383726661814472 
2147	 0.383584628069272 
2148	 0.383528239919039 
2149	 0.383455220434731 
2150	 0.383416690686381 
2151	 0.383322982320413 
2152	 0.383263582675509 
2153	 0.383101343079815 
2154	 0.38289274154276 
2155	 0.382662564501548 
2156	 0.382565246457162 
2157	 0.382530199185855 
2158	 0.38249010290586 
2159	 0.38257693705171 
2160	 0.382510009931972 
2161	 0.382390325785856 
2162	 0.382233626547101 
2163	 0.381969071309168 
2164	 0.381781762667271 
2165	 0.381587205517311 
2166	 0.381411734592845 
2167	 0.381240324995089 
2168	 0.381131856524227 
2169	 0.381103247714798 
2170	 0.380990689114252 
2171	 0.380898448959968 
2172	 0.380790993960649 
2173	 0.380621689125704 
2174	 0.380454269931079 
2175	 0.380254116319333 
2176	 0.379991250069392 
2177	 0.379798268078905 
2178	 0.37952368101587 
2179	 0.379396700281728 
2180	 0.379419106410353 
2181	 0.379358677623513 
2182	 0.379289983864422 
2183	 0.3792596586168 
2184	 0.379234159973438 
2185	 0.379217992663298 
2186	 0.379329469462739 
2187	 0.379256103169865 
2188	 0.379056144709607 
2189	 0.378911909908707 
2190	 0.378693493807601 
2191	 0.378479959025027 
2192	 0.378297225926734 
2193	 0.378110696807323 
2194	 0.377904127851295 
2195	 0.377676916955287 
2196	 0.377493463260862 
2197	 0.377238022834384 
2198	 0.376999615153641 
2199	 0.376577466139454 
2200	 0.376203913878786 
2201	 0.375822023359666 
2202	 0.375404569634495 
2203	 0.374897084828478 
2204	 0.374514052385038 
2205	 0.374180640321486 
2206	 0.373777262388025 
2207	 0.373448658423734 
2208	 0.373009324282493 
2209	 0.372427099776558 
2210	 0.371941864903235 
2211	 0.371463289037941 
2212	 0.370993871961338 
2213	 0.370576596535078 
2214	 0.37011208238016 
2215	 0.369610731838505 
2216	 0.369138998263012 
2217	 0.368630301193194 
2218	 0.368180201642284 
2219	 0.36780722596664 
2220	 0.367403848147747 
2221	 0.367011451585805 
2222	 0.366625197586437 
2223	 0.366260739133535 
2224	 0.365792355879474 
2225	 0.36534195744601 
2226	 0.364898616476099 
2227	 0.364385375243757 
2228	 0.363858199318052 
2229	 0.363200983283514 
2230	 0.362457779907546 
2231	 0.3616825345983 
2232	 0.360830214283956 
2233	 0.359878221651606 
2234	 0.358970542382323 
2235	 0.357765109083412 
2236	 0.35637843021765 
2237	 0.354830758223429 
2238	 0.352965948972224 
2239	 0.35117069779118 
2240	 0.349377375500272 
2241	 0.347332512668201 
2242	 0.345223089465556 
2243	 0.342918037713796 
2244	 0.340326214296372 
2245	 0.337661961033666 
2246	 0.334757836323764 
2247	 0.331931096876979 
2248	 0.32900035368037 
2249	 0.32606828498854 
2250	 0.323155437044676 
2251	 0.320326486451819 
2252	 0.31721802657167 
2253	 0.314257327200127 
2254	 0.311205790794375 
2255	 0.307982703604208 
2256	 0.304894792029708 
2257	 0.301821707620207 
2258	 0.298919452042719 
2259	 0.296206633075495 
2260	 0.293388571004813 
2261	 0.290619508215684 
2262	 0.287867366297556 
2263	 0.284970861298167 
2264	 0.282380374796487 
2265	 0.280020349953332 
2266	 0.277596263363963 
2267	 0.275373051257432 
2268	 0.27299903827812 
2269	 0.270471152383696 
2270	 0.268168755056598 
2271	 0.265883747813124 
2272	 0.263710902831677 
2273	 0.261807586070066 
2274	 0.259716510270402 
2275	 0.257670217596136 
2276	 0.255486216023041 
2277	 0.25317400617043 
2278	 0.250852465794049 
2279	 0.248292542328219 
2280	 0.245968894235582 
2281	 0.243834361692377 
2282	 0.241535500513213 
2283	 0.23923883275562 
2284	 0.237060007705464 
2285	 0.234605387762874 
2286	 0.232127469740502 
2287	 0.22970390407008 
2288	 0.227192280697276 
2289	 0.224701705978503 
2290	 0.222183868590655 
2291	 0.219787407854516 
2292	 0.217372816900819 
2293	 0.214783593756646 
2294	 0.212356050263468 
2295	 0.209893966256824 
2296	 0.207557242525106 
2297	 0.205625858200684 
2298	 0.203983963352762 
2299	 0.202536084703899 
2300	 0.201443418372071 
2301	 0.200457674819339 
2302	 0.199609640306675 
2303	 0.199155373827792 
2304	 0.198931998172349 
2305	 0.199094871928223 
2306	 0.199685101524417 
2307	 0.200441134828311 
2308	 0.201628177972441 
2309	 0.202754076845925 
2310	 0.203947322826969 
2311	 0.205428653170245 
2312	 0.207081382847139 
2313	 0.208928693425255 
2314	 0.211119336967739 
2315	 0.213362376631022 
2316	 0.215890594476167 
2317	 0.218204522371113 
2318	 0.220672930680248 
2319	 0.222814369803111 
2320	 0.224852067377056 
2321	 0.226449588713992 
2322	 0.227721108985241 
2323	 0.228824147453529 
2324	 0.229560194773762 
2325	 0.230130796775108 
2326	 0.230562199439879 
2327	 0.230750918487534 
2328	 0.23054164785167 
2329	 0.230308136333967 
2330	 0.229972155972421 
2331	 0.229379242075502 
2332	 0.228722778317472 
2333	 0.227987038577216 
2334	 0.226725644047266 
2335	 0.225311766062214 
2336	 0.223908251359928 
2337	 0.222333101549521 
2338	 0.220832898585368 
2339	 0.219360356799031 
2340	 0.217706762186991 
2341	 0.216128625370666 
2342	 0.2146477644778 
2343	 0.213377754971394 
2344	 0.21227010158525 
2345	 0.211107971088879 
2346	 0.210590850021723 
2347	 0.210390860807481 
2348	 0.210467135520081 
2349	 0.211327194912659 
2350	 0.212002951213214 
2351	 0.212870252201295 
2352	 0.214346770052835 
2353	 0.215819470763214 
2354	 0.217259377273131 
2355	 0.2189945201743 
2356	 0.220570678138405 
2357	 0.221685363080145 
2358	 0.222898953067858 
2359	 0.224014199684705 
2360	 0.224663143329506 
2361	 0.225130029691414 
2362	 0.225526949275697 
2363	 0.225612365766667 
2364	 0.225681700997687 
2365	 0.225663234450088 
2366	 0.225476704406383 
2367	 0.225310381430779 
2368	 0.225059437478844 
2369	 0.22488925764419 
2370	 0.224788445352596 
2371	 0.224472981171645 
2372	 0.224358522720225 
2373	 0.224506547894705 
2374	 0.224364994711411 
2375	 0.224498511385477 
2376	 0.224572938075634 
2377	 0.224259775116589 
2378	 0.224139159151786 
2379	 0.223841993760995 
2380	 0.22360525451723 
2381	 0.223617009546625 
2382	 0.22359971333135 
2383	 0.223724084849473 
2384	 0.223873800992448 
2385	 0.224087390715761 
2386	 0.224142959376273 
2387	 0.224193102134889 
2388	 0.224232142797085 
2389	 0.224131155057986 
2390	 0.224012905769773 
2391	 0.2239693810509 
2392	 0.223889050490598 
2393	 0.223618360160311 
2394	 0.223662740359394 
2395	 0.223971846716921 
2396	 0.223969119461039 
2397	 0.224004124395674 
2398	 0.223861140476859 
2399	 0.223293898583024 
2400	 0.223247405067021 
2401	 0.22339546180748 
2402	 0.223858709261951 
2403	 0.224258931907629 
2404	 0.224038244304103 
2405	 0.223794724955496 
2406	 0.223613188567813 
2407	 0.223164773970144 
2408	 0.22319971976037 
2409	 0.223227688197168 
2410	 0.223070866883704 
2411	 0.223386141154341 
2412	 0.223613901348956 
2413	 0.223825940117482 
2414	 0.223886296507824 
2415	 0.223482511491257 
2416	 0.222955930169853 
2417	 0.222658469519813 
2418	 0.222622674325124 
2419	 0.222659707252108 
2420	 0.223061376784789 
2421	 0.223495446709598 
2422	 0.22343896603929 
2423	 0.223311289950528 
2424	 0.22298072713765 
2425	 0.222633465172507 
2426	 0.222729642279751 
2427	 0.222388440670687 
2428	 0.221928834753804 
2429	 0.222107381579327 
2430	 0.222005127341764 
2431	 0.222046105417073 
2432	 0.222826389950029 
2433	 0.222474471858365 
2434	 0.221551944313566 
2435	 0.221602428882411 
2436	 0.221359946737357 
2437	 0.221076676748338 
2438	 0.221162928730896 
2439	 0.221041554758515 
2440	 0.220167192676376 
2441	 0.219265829574491 
2442	 0.219825838643322 
2443	 0.219877516831801 
2444	 0.219720395227696 
2445	 0.219904246079003 
2446	 0.219051868625305 
2447	 0.219040179276887 
2448	 0.219338439240563 
2449	 0.21955267281736 
2450	 0.219947367048899 
2451	 0.218816176846924 
2452	 0.217862284551114 
2453	 0.21795293898215 
2454	 0.217917095905248 
2455	 0.218056877175295 
2456	 0.218119529036591 
2457	 0.217651404739202 
2458	 0.216836203901027 
2459	 0.216352317626242 
2460	 0.216016553240522 
2461	 0.215346734842321 
2462	 0.215095420429699 
2463	 0.214843651554468 
2464	 0.214421913849311 
2465	 0.214097551518423 
2466	 0.213270954569931 
2467	 0.212765290195729 
2468	 0.212812397025223 
2469	 0.212575995293861 
2470	 0.212580481146023 
2471	 0.21284509676607 
2472	 0.212126198096608 
2473	 0.211584086755787 
2474	 0.211797756357254 
2475	 0.210341599068363 
2476	 0.209370112348742 
2477	 0.20997840688772 
2478	 0.209598568499649 
2479	 0.21008718147334 
2480	 0.210834289557546 
2481	 0.21118722788248 
2482	 0.211885062601738 
2483	 0.21228248573223 
2484	 0.212449954261735 
2485	 0.211924953414549 
2486	 0.211953185310468 
2487	 0.212233010294251 
2488	 0.212465369452013 
2489	 0.213191762979939 
2490	 0.213211145162784 
2491	 0.213018685360128 
2492	 0.213370892888657 
2493	 0.213755684793694 
2494	 0.215068138831715 
2495	 0.216579064352244 
2496	 0.218040393284748 
2497	 0.22025914626955 
2498	 0.220927383581879 
2499	 0.220032572639895 
2500	 0.219852762748155 
