Wavelength	Tablay400083.asd
350	 0.117713357475216 
351	 6.81332982622554E-02 
352	 7.94641715244427E-02 
353	 0.153826824873877 
354	 0.111097206065364 
355	 0.121382317431254 
356	 0.133374595505634 
357	 9.74841982859781E-02 
358	 0.104358150322447 
359	 0.112388407756199 
360	 0.132071706592086 
361	 0.184871835189966 
362	 0.1394406267568 
363	 9.26760955317809E-02 
364	 9.26880276809931E-02 
365	 0.046117360170498 
366	 5.49500174640344E-02 
367	 7.61905522496904E-02 
368	 6.63219166566493E-02 
369	 9.38621665132748E-02 
370	 0.084724771852143 
371	 7.32110413297447E-02 
372	 0.132294145463241 
373	 9.00543103670007E-02 
374	 5.07716469834958E-02 
375	 5.77298977820428E-02 
376	 4.58150051814973E-02 
377	 9.73643762904097E-02 
378	 0.122089038546305 
379	 5.82286607726451E-02 
380	 0.03351157599961 
381	 4.61162239849743E-02 
382	 7.43833121737667E-02 
383	 8.69191123603152E-02 
384	 7.24432538358758E-02 
385	 6.68427614739749E-02 
386	 7.87081610496675E-02 
387	 0.067367770944003 
388	 6.07736813471464E-02 
389	 6.05158229320385E-02 
390	 0.065863089661914 
391	 0.094737029304134 
392	 9.18585321205745E-02 
393	 0.062631412527663 
394	 5.02086502504686E-02 
395	 3.81654471474821E-02 
396	 3.85670312931062E-02 
397	 5.43469211893417E-02 
398	 7.19054876599516E-02 
399	 8.45470258257133E-02 
400	 0.085084932227179 
401	 7.39583830837199E-02 
402	 6.89648697340011E-02 
403	 6.62499128937008E-02 
404	 6.47943351183248E-02 
405	 6.61630271127238E-02 
406	 6.88142314768908E-02 
407	 6.35227455673043E-02 
408	 5.08298599513041E-02 
409	 5.00538237677928E-02 
410	 5.86007094919186E-02 
411	 6.31155701107153E-02 
412	 5.34843738901673E-02 
413	 5.29962819140258E-02 
414	 5.93112839199792E-02 
415	 6.75686210208518E-02 
416	 7.22283708809877E-02 
417	 7.09785194079856E-02 
418	 6.34430962718279E-02 
419	 5.43112359470629E-02 
420	 5.93598958947166E-02 
421	 6.07556120072019E-02 
422	 5.74300308596565E-02 
423	 5.51633870093596E-02 
424	 5.50453384038106E-02 
425	 0.06062625779571 
426	 6.73138710335319E-02 
427	 6.22903986127157E-02 
428	 5.94506660262491E-02 
429	 6.20559684393777E-02 
430	 0.067278342468236 
431	 6.22136425660752E-02 
432	 5.75203456317278E-02 
433	 5.72816198376495E-02 
434	 6.08932873129468E-02 
435	 6.11525418220959E-02 
436	 6.10617498016621E-02 
437	 6.22978008771347E-02 
438	 6.28431765577379E-02 
439	 0.063215222522876 
440	 6.28132575501923E-02 
441	 6.16345447119102E-02 
442	 6.32687541959226E-02 
443	 6.32100040580247E-02 
444	 6.10477424637163E-02 
445	 5.96815214712581E-02 
446	 5.97233446319998E-02 
447	 6.04802187087651E-02 
448	 6.14676629878545E-02 
449	 6.34653422701762E-02 
450	 6.37334672718018E-02 
451	 6.31559834804957E-02 
452	 6.34484872802483E-02 
453	 0.062215195195632 
454	 6.16012268261227E-02 
455	 6.21134003884561E-02 
456	 6.22533849853822E-02 
457	 0.064124255721519 
458	 0.065351344009993 
459	 6.40844071216342E-02 
460	 6.22084245894989E-02 
461	 6.32046899228356E-02 
462	 6.58215355777846E-02 
463	 6.64688543618546E-02 
464	 6.55919690028008E-02 
465	 6.56995909956095E-02 
466	 6.69186184834781E-02 
467	 6.54664325834625E-02 
468	 6.51243458911741E-02 
469	 6.58943271195654E-02 
470	 6.65902181302848E-02 
471	 6.56862325375399E-02 
472	 6.65854924428139E-02 
473	 6.79509838464902E-02 
474	 6.53007454645276E-02 
475	 6.48635094842168E-02 
476	 6.57128801852822E-02 
477	 6.62353080316311E-02 
478	 6.57574277141829E-02 
479	 6.59766054356603E-02 
480	 0.066384608225587 
481	 6.58603537086253E-02 
482	 6.48647511855649E-02 
483	 6.55552343509901E-02 
484	 6.73032387474192E-02 
485	 6.64534210235164E-02 
486	 6.57829731131184E-02 
487	 6.56770069114664E-02 
488	 6.58516387562158E-02 
489	 6.57850273300312E-02 
490	 6.49559649147388E-02 
491	 6.43011620835439E-02 
492	 6.52269920261085E-02 
493	 0.065121819366539 
494	 6.52568143770307E-02 
495	 6.59851878369313E-02 
496	 6.54266742081488E-02 
497	 6.54517326040556E-02 
498	 0.065274600282324 
499	 6.39506745259122E-02 
500	 6.33435792955384E-02 
501	 6.34470035147472E-02 
502	 6.35531770798259E-02 
503	 6.25412712839464E-02 
504	 6.14579291360313E-02 
505	 6.11292446544182E-02 
506	 6.16742671836972E-02 
507	 6.18304815441761E-02 
508	 6.14812209089805E-02 
509	 6.12669656665231E-02 
510	 6.18015551918551E-02 
511	 6.08447137091833E-02 
512	 6.00681364556512E-02 
513	 6.00222172351061E-02 
514	 5.94506568326718E-02 
515	 5.90645792223244E-02 
516	 5.88831820225968E-02 
517	 5.85870474715148E-02 
518	 0.057123651665354 
519	 5.65727968496985E-02 
520	 5.68880801681181E-02 
521	 5.66114148320233E-02 
522	 5.61423154421969E-02 
523	 0.055831510378808 
524	 5.58908558153538E-02 
525	 5.64424301399798E-02 
526	 5.56279810029864E-02 
527	 5.42199771094092E-02 
528	 5.37361146610168E-02 
529	 5.41042878547958E-02 
530	 0.053770074244394 
531	 5.27424798963518E-02 
532	 5.26956878858186E-02 
533	 5.30829718024118E-02 
534	 5.28935817705846E-02 
535	 5.18184770447277E-02 
536	 5.18213476999747E-02 
537	 5.17441976149254E-02 
538	 5.13137341954389E-02 
539	 5.07900967824123E-02 
540	 5.05264571934396E-02 
541	 5.03268303328749E-02 
542	 5.00503572563289E-02 
543	 4.97445457834682E-02 
544	 4.95562902046197E-02 
545	 4.93692510313434E-02 
546	 4.90610043739086E-02 
547	 4.88570527734133E-02 
548	 4.87475036195133E-02 
549	 4.86045879285652E-02 
550	 4.82300595356642E-02 
551	 4.79613395888148E-02 
552	 4.77157043340388E-02 
553	 4.74396195225035E-02 
554	 4.73564854687674E-02 
555	 4.73909027865794E-02 
556	 4.72349548145836E-02 
557	 4.66160061395929E-02 
558	 0.046355752784849 
559	 4.63193038204658E-02 
560	 4.63464324302541E-02 
561	 0.046383058652276 
562	 4.61965004662002E-02 
563	 4.60566737174197E-02 
564	 4.61395449600964E-02 
565	 4.56673278197617E-02 
566	 4.55888264638601E-02 
567	 4.57158206398259E-02 
568	 4.51283378420503E-02 
569	 0.045320720320376 
570	 4.52424238956905E-02 
571	 4.44364721803369E-02 
572	 4.44685051284286E-02 
573	 4.45865136807975E-02 
574	 4.45520215920127E-02 
575	 4.43639675628339E-02 
576	 4.44160328414493E-02 
577	 4.43739243733127E-02 
578	 4.42489924414951E-02 
579	 4.44756730108355E-02 
580	 4.43470067329593E-02 
581	 4.41283682203467E-02 
582	 4.40750788714432E-02 
583	 4.36238549630117E-02 
584	 4.36329650531461E-02 
585	 0.043939597962722 
586	 4.38357896769754E-02 
587	 4.36728656097441E-02 
588	 4.35535049270044E-02 
589	 4.34849021580157E-02 
590	 4.33572189282505E-02 
591	 4.33472378719608E-02 
592	 4.34296849460558E-02 
593	 0.043466289728048 
594	 4.31053111728423E-02 
595	 0.042896563967824 
596	 4.29348634282776E-02 
597	 4.29082491121734E-02 
598	 4.30254011623041E-02 
599	 4.29758859979262E-02 
600	 4.26575240492965E-02 
601	 4.26669832109518E-02 
602	 4.26820562596833E-02 
603	 4.26231615947844E-02 
604	 0.042512661979402 
605	 4.23436636967602E-02 
606	 0.042332933915808 
607	 4.24551774531209E-02 
608	 4.23749697869294E-02 
609	 4.22366996514321E-02 
610	 4.20824999909502E-02 
611	 4.19419414000597E-02 
612	 4.18589846523263E-02 
613	 4.19102248836892E-02 
614	 0.042002760639642 
615	 4.19582847138191E-02 
616	 4.19325674676434E-02 
617	 4.19176255088289E-02 
618	 4.18775852437096E-02 
619	 4.17558809592015E-02 
620	 4.17337016203189E-02 
621	 4.16974719895487E-02 
622	 4.15189272512088E-02 
623	 4.14755392893602E-02 
624	 4.16448825876652E-02 
625	 4.18444809880862E-02 
626	 4.16980059370147E-02 
627	 4.16746454536431E-02 
628	 4.16676643545896E-02 
629	 4.15748140390343E-02 
630	 4.15814839883553E-02 
631	 4.15876756510456E-02 
632	 4.15017121410468E-02 
633	 4.12863793654941E-02 
634	 4.12140365841546E-02 
635	 4.13660657211766E-02 
636	 4.15599951838249E-02 
637	 4.13271587433091E-02 
638	 4.12768311437363E-02 
639	 4.13400414206362E-02 
640	 4.13317910464584E-02 
641	 4.12618326178426E-02 
642	 4.12253284320593E-02 
643	 4.12518262241421E-02 
644	 4.13057557041497E-02 
645	 4.11669766585241E-02 
646	 4.11360168530471E-02 
647	 4.12822156646453E-02 
648	 4.11998636589003E-02 
649	 4.10753321694925E-02 
650	 4.09805136039419E-02 
651	 0.040975923517534 
652	 4.12292383131216E-02 
653	 0.041307753866065 
654	 4.11687029895338E-02 
655	 4.10976952969499E-02 
656	 4.11186547874198E-02 
657	 4.12139070076955E-02 
658	 4.12995465321831E-02 
659	 4.11685160463344E-02 
660	 0.041057244619978 
661	 4.10224859499258E-02 
662	 4.10389293955087E-02 
663	 0.041020276640239 
664	 4.10960054381127E-02 
665	 4.12395859336441E-02 
666	 4.12644449230689E-02 
667	 4.12520525228411E-02 
668	 4.12089974860743E-02 
669	 4.11494172444321E-02 
670	 4.11334640491716E-02 
671	 4.11801456365054E-02 
672	 0.041197678364468 
673	 0.041092053225043 
674	 4.11117016315637E-02 
675	 4.12191776013497E-02 
676	 4.13454232685496E-02 
677	 4.14170335172098E-02 
678	 4.13173851555348E-02 
679	 4.12179195208902E-02 
680	 4.12547803455156E-02 
681	 4.12282287943911E-02 
682	 4.13524218931525E-02 
683	 4.14583199160265E-02 
684	 4.12592064277573E-02 
685	 4.13218239946871E-02 
686	 4.14104918852386E-02 
687	 4.13964819163095E-02 
688	 0.04141879564399 
689	 4.14689016650039E-02 
690	 0.041472416352473 
691	 4.14004527209522E-02 
692	 4.14489086352146E-02 
693	 4.14729401067723E-02 
694	 4.14266449792013E-02 
695	 4.13537641523469E-02 
696	 4.14742045043798E-02 
697	 4.16144121621495E-02 
698	 4.16609422561908E-02 
699	 0.041669978260019 
700	 4.16811709860621E-02 
701	 4.17558473699695E-02 
702	 4.18891868458592E-02 
703	 4.18190715693889E-02 
704	 0.04179596303343 
705	 4.18456711981815E-02 
706	 4.18418333984071E-02 
707	 4.18613784257763E-02 
708	 4.19472789159307E-02 
709	 0.042046367853453 
710	 4.19482323656653E-02 
711	 4.19575555570233E-02 
712	 4.20605844880829E-02 
713	 4.21399878530397E-02 
714	 0.042072580699341 
715	 4.21204751375728E-02 
716	 0.042264842925721 
717	 4.22925283260236E-02 
718	 4.22743414002157E-02 
719	 4.23343483582482E-02 
720	 4.24579103737776E-02 
721	 4.23778557240607E-02 
722	 4.24699826511751E-02 
723	 0.042571799328547 
724	 4.24889370570642E-02 
725	 0.042576410630658 
726	 4.26488605261979E-02 
727	 4.26922543263346E-02 
728	 4.28027085933373E-02 
729	 4.28124458870033E-02 
730	 4.28190855377379E-02 
731	 4.28928755843343E-02 
732	 0.043007290295874 
733	 4.30051794457748E-02 
734	 4.29899162897439E-02 
735	 4.30766820988846E-02 
736	 4.31137695894781E-02 
737	 4.31361376083782E-02 
738	 4.31842294819569E-02 
739	 4.32886222261927E-02 
740	 4.33733725030753E-02 
741	 4.34556268191019E-02 
742	 0.043517152157206 
743	 4.34689580227695E-02 
744	 4.34952628511723E-02 
745	 4.35825524964533E-02 
746	 4.36617122892092E-02 
747	 4.36815327222252E-02 
748	 4.36657039600127E-02 
749	 4.36822908709152E-02 
750	 4.37977541117607E-02 
751	 4.38713936350832E-02 
752	 4.39262331062692E-02 
753	 4.39600623698915E-02 
754	 4.39190499106524E-02 
755	 4.40418976373694E-02 
756	 4.41663324484675E-02 
757	 4.41495703308085E-02 
758	 0.044186864054892 
759	 4.41833356681499E-02 
760	 4.41504403274356E-02 
761	 4.41518192142043E-02 
762	 4.42511787255615E-02 
763	 4.43138009262092E-02 
764	 4.43383065978491E-02 
765	 4.44658654450318E-02 
766	 4.44168156984335E-02 
767	 4.44366098797248E-02 
768	 0.044645905590632 
769	 4.46511891256915E-02 
770	 4.46098009433786E-02 
771	 4.46099382248739E-02 
772	 4.46948090301629E-02 
773	 4.47888139181515E-02 
774	 0.044831980892708 
775	 0.044839006474229 
776	 4.48761017226183E-02 
777	 4.48523571936571E-02 
778	 4.48710226290388E-02 
779	 4.49675085344284E-02 
780	 4.50215438803983E-02 
781	 4.50247422798852E-02 
782	 4.50478826419864E-02 
783	 4.51340334201599E-02 
784	 4.51361784660797E-02 
785	 4.51692560110762E-02 
786	 4.52179464448091E-02 
787	 4.52098107125759E-02 
788	 4.52456567069246E-02 
789	 4.53305901278637E-02 
790	 4.53951730423713E-02 
791	 4.53097248674714E-02 
792	 4.53717938779954E-02 
793	 4.54740405848019E-02 
794	 4.55004304626909E-02 
795	 0.045525381990856 
796	 4.55540687236127E-02 
797	 0.045581110272081 
798	 4.56073860447056E-02 
799	 4.56984183498357E-02 
800	 4.57643286870582E-02 
801	 4.57853862473121E-02 
802	 4.58043045751388E-02 
803	 4.58514455284114E-02 
804	 4.58893930563064E-02 
805	 4.59228083464054E-02 
806	 4.60318530415589E-02 
807	 4.60073460347679E-02 
808	 4.59863530107956E-02 
809	 4.60870753114523E-02 
810	 4.61082407930157E-02 
811	 4.60951305109561E-02 
812	 4.61174038306338E-02 
813	 4.62346481724168E-02 
814	 0.046391857692549 
815	 4.63804524891026E-02 
816	 4.62973077994964E-02 
817	 4.64734312100797E-02 
818	 4.65933874499954E-02 
819	 4.66478857132362E-02 
820	 4.66709675942431E-02 
821	 4.66870675507376E-02 
822	 4.68196242138606E-02 
823	 4.69110839795754E-02 
824	 4.68652304697564E-02 
825	 4.70257973838657E-02 
826	 4.70905151761531E-02 
827	 4.71282757952007E-02 
828	 4.73088978703499E-02 
829	 4.73262015051682E-02 
830	 4.73461473216128E-02 
831	 4.74495682629529E-02 
832	 4.76036607621177E-02 
833	 4.76869603429235E-02 
834	 0.047687814739084 
835	 4.76803621469427E-02 
836	 4.78306410821232E-02 
837	 4.80873164928703E-02 
838	 4.82376728332509E-02 
839	 4.81906401975854E-02 
840	 4.82950801565461E-02 
841	 4.84085561938708E-02 
842	 4.85029897824786E-02 
843	 4.86006145788123E-02 
844	 4.87523954439427E-02 
845	 4.89114423360034E-02 
846	 4.90313051107657E-02 
847	 4.90876602390581E-02 
848	 4.91950921450256E-02 
849	 4.92956262178306E-02 
850	 4.94051990671196E-02 
851	 4.96416377919977E-02 
852	 4.97261175241908E-02 
853	 4.97553455749698E-02 
854	 4.98720772008522E-02 
855	 5.01535177977408E-02 
856	 5.02667227444483E-02 
857	 5.03225535737119E-02 
858	 5.05104768668693E-02 
859	 5.07578886814025E-02 
860	 5.08649685554479E-02 
861	 5.09269509517979E-02 
862	 5.11482634586544E-02 
863	 5.13750738700175E-02 
864	 5.15563566106635E-02 
865	 0.051740431221924 
866	 5.20228030950042E-02 
867	 5.21034524286267E-02 
868	 5.22046208837664E-02 
869	 5.24269849670376E-02 
870	 5.26100571711848E-02 
871	 0.052880329741563 
872	 0.053135516919332 
873	 5.33062768364249E-02 
874	 5.34922500613726E-02 
875	 5.38210179428488E-02 
876	 5.40703418303583E-02 
877	 0.054096543817913 
878	 5.44438330606929E-02 
879	 5.46897432720979E-02 
880	 5.48603908365853E-02 
881	 5.51591543564807E-02 
882	 5.54416850624568E-02 
883	 5.57421439257948E-02 
884	 5.60308425870093E-02 
885	 0.056254672124486 
886	 0.05662862626199 
887	 5.70435126606323E-02 
888	 5.73708405206137E-02 
889	 5.75335238775728E-02 
890	 5.78755034374808E-02 
891	 5.82584386737867E-02 
892	 5.85525711362769E-02 
893	 5.88004002127734E-02 
894	 5.92217188734772E-02 
895	 5.96469364580015E-02 
896	 5.99540696916039E-02 
897	 6.04210490274227E-02 
898	 6.08087961722157E-02 
899	 0.061182189913704 
900	 6.16429580941944E-02 
901	 6.20283986070256E-02 
902	 6.23703775224031E-02 
903	 6.27961654518958E-02 
904	 6.33855014096441E-02 
905	 6.37352723840699E-02 
906	 6.41242882549025E-02 
907	 0.064626033035063 
908	 6.51379843165285E-02 
909	 6.56360870813636E-02 
910	 0.06621692942491 
911	 6.68451763866897E-02 
912	 6.73604505400466E-02 
913	 6.78479759460185E-02 
914	 6.83983969443993E-02 
915	 6.90119973575351E-02 
916	 6.95711191476586E-02 
917	 7.00636233709176E-02 
918	 7.05871562014309E-02 
919	 7.12143504720962E-02 
920	 7.19233515970612E-02 
921	 7.27235475701932E-02 
922	 7.33583132201983E-02 
923	 7.37818862424034E-02 
924	 7.46411963206514E-02 
925	 7.52992829363461E-02 
926	 7.59231576173397E-02 
927	 7.67813564470029E-02 
928	 7.75724417554403E-02 
929	 7.83299606110335E-02 
930	 7.90495854646142E-02 
931	 7.97528620333748E-02 
932	 8.06076722306444E-02 
933	 8.14580771183641E-02 
934	 8.22602611973326E-02 
935	 8.30523630140687E-02 
936	 8.39161224873684E-02 
937	 8.46293100358321E-02 
938	 8.53702092184983E-02 
939	 8.64746634235241E-02 
940	 8.73397673210527E-02 
941	 8.82105798034707E-02 
942	 8.91509854428329E-02 
943	 9.00117032352477E-02 
944	 9.07049181271438E-02 
945	 9.17412379419139E-02 
946	 9.30211058916451E-02 
947	 9.38207820811711E-02 
948	 9.45344134701362E-02 
949	 9.55182101925102E-02 
950	 9.67345441576357E-02 
951	 0.097694541431479 
952	 9.85115454063236E-02 
953	 9.96611825248879E-02 
954	 0.101026276827116 
955	 0.101623096667202 
956	 0.102603063772772 
957	 0.103689874422469 
958	 0.104656971369304 
959	 0.105861137349547 
960	 0.107023997713157 
961	 0.10817206022588 
962	 0.10928929401463 
963	 0.110145232174776 
964	 0.11134771911395 
965	 0.112630846532264 
966	 0.113694989426517 
967	 0.114706052401151 
968	 0.115988321117891 
969	 0.117382598742696 
970	 0.118612280376126 
971	 0.119504283037738 
972	 0.120511955599412 
973	 0.121721731107002 
974	 0.123046720901964 
975	 0.124313265955084 
976	 0.125387551719067 
977	 0.126538913568994 
978	 0.127936388554092 
979	 0.129024890976443 
980	 0.130214235550002 
981	 0.131421778634091 
982	 0.132534015675269 
983	 0.133914162184498 
984	 0.134861292416111 
985	 0.135834985714268 
986	 0.137344173869396 
987	 0.138655331600924 
988	 0.13999948581752 
989	 0.141284908966242 
990	 0.142382460941026 
991	 0.14337379200564 
992	 0.144499197391906 
993	 0.145670840051323 
994	 0.1467553821821 
995	 0.1479164215553 
996	 0.149183291002705 
997	 0.150642193016001 
998	 0.15220940615795 
999	 0.153211662413678 
1000	 0.154502118569479 
1001	 0.156379208872091 
1002	 0.157665367200631 
1003	 0.158843180276023 
1004	 0.160098732077438 
1005	 0.161473911667679 
1006	 0.162723582131042 
1007	 0.163941214887266 
1008	 0.165140241410769 
1009	 0.166177709006723 
1010	 0.167364034147285 
1011	 0.168649621638392 
1012	 0.169859933919596 
1013	 0.171204325103365 
1014	 0.172408164793368 
1015	 0.173512248127855 
1016	 0.174512280484839 
1017	 0.175571959801987 
1018	 0.176425130733712 
1019	 0.177620535268012 
1020	 0.179238600254701 
1021	 0.180476965750417 
1022	 0.181773210731834 
1023	 0.182962099785085 
1024	 0.18376898424884 
1025	 0.184832791679689 
1026	 0.186143560356206 
1027	 0.187296853639251 
1028	 0.188435550505927 
1029	 0.189586064983194 
1030	 0.190534424238342 
1031	 0.191519119491407 
1032	 0.192565460474571 
1033	 0.193540502321674 
1034	 0.194676627525949 
1035	 0.195905451303444 
1036	 0.197001359278493 
1037	 0.198064112580645 
1038	 0.199131100476604 
1039	 0.200193532777375 
1040	 0.201173322133416 
1041	 0.202137407487102 
1042	 0.203095703375319 
1043	 0.204021208077226 
1044	 0.204748754803668 
1045	 0.205727652917931 
1046	 0.20671578428701 
1047	 0.207696959311745 
1048	 0.208762758658496 
1049	 0.20947850985194 
1050	 0.21039211003906 
1051	 0.21149316744125 
1052	 0.212391730086938 
1053	 0.21342469066317 
1054	 0.214792341181553 
1055	 0.215745984266382 
1056	 0.216463859499936 
1057	 0.21733098207973 
1058	 0.218124949151667 
1059	 0.218818652096218 
1060	 0.219770785760372 
1061	 0.220591799892486 
1062	 0.221381394797739 
1063	 0.222417219821065 
1064	 0.223298458266087 
1065	 0.224119069014964 
1066	 0.224970892265742 
1067	 0.225760021716789 
1068	 0.22659380703996 
1069	 0.227400363306063 
1070	 0.228269053693533 
1071	 0.229207589127596 
1072	 0.230083301052738 
1073	 0.230824742771426 
1074	 0.231685942627378 
1075	 0.232542937166513 
1076	 0.233258398995857 
1077	 0.234031955507925 
1078	 0.234813959060219 
1079	 0.235564085658234 
1080	 0.236320432586997 
1081	 0.237065926283152 
1082	 0.237874019846584 
1083	 0.238552300784378 
1084	 0.239162919375252 
1085	 0.239849506067947 
1086	 0.24052274467411 
1087	 0.241154341228796 
1088	 0.241911151767922 
1089	 0.242670422582953 
1090	 0.243298300885961 
1091	 0.243944254857998 
1092	 0.244586387568401 
1093	 0.245248875272266 
1094	 0.245991327607869 
1095	 0.246661189251608 
1096	 0.247225411074115 
1097	 0.247870367888751 
1098	 0.248427451084422 
1099	 0.24896432531966 
1100	 0.249660010695616 
1101	 0.250201072364029 
1102	 0.250680373687103 
1103	 0.251203098729547 
1104	 0.251761675613503 
1105	 0.252238592285379 
1106	 0.252770652857593 
1107	 0.253306425789217 
1108	 0.253841712147989 
1109	 0.254444615896859 
1110	 0.25501891583357 
1111	 0.255600861653337 
1112	 0.256145271009612 
1113	 0.256606609186079 
1114	 0.257051798474907 
1115	 0.257471202240665 
1116	 0.257951016472763 
1117	 0.258426356290015 
1118	 0.258876667050987 
1119	 0.259349223644471 
1120	 0.259772534315935 
1121	 0.260141384161237 
1122	 0.260517200888204 
1123	 0.260982938514631 
1124	 0.261400552788143 
1125	 0.261771472590518 
1126	 0.262242815562965 
1127	 0.262672862209609 
1128	 0.263051554052678 
1129	 0.263541694623321 
1130	 0.264018845830957 
1131	 0.264370591335926 
1132	 0.264656705977383 
1133	 0.26497928782702 
1134	 0.265288019663416 
1135	 0.2655987762907 
1136	 0.265927001455852 
1137	 0.266280847095387 
1138	 0.266635966852365 
1139	 0.266971370907896 
1140	 0.267339590757163 
1141	 0.267676395750314 
1142	 0.267934192072804 
1143	 0.268232847427201 
1144	 0.268445930208935 
1145	 0.268709534701409 
1146	 0.269078539995724 
1147	 0.269371969565947 
1148	 0.269685309901405 
1149	 0.270026506261863 
1150	 0.270302321626189 
1151	 0.270574544855323 
1152	 0.270837273813006 
1153	 0.271106617645854 
1154	 0.271353694875473 
1155	 0.27156120886925 
1156	 0.271785713939516 
1157	 0.272062979785905 
1158	 0.272274636348222 
1159	 0.27242864842795 
1160	 0.272598337061535 
1161	 0.272854993477329 
1162	 0.273041602440621 
1163	 0.273266305185433 
1164	 0.273484362044554 
1165	 0.273593613225467 
1166	 0.273707308552659 
1167	 0.273891677067953 
1168	 0.274105493392607 
1169	 0.27429344594481 
1170	 0.27448532992506 
1171	 0.274695652483827 
1172	 0.27494471212919 
1173	 0.275111594317615 
1174	 0.275251672296767 
1175	 0.275404348716226 
1176	 0.275450922673827 
1177	 0.275572818382017 
1178	 0.275739299337385 
1179	 0.2759839693401 
1180	 0.276164283906733 
1181	 0.276344518143619 
1182	 0.276519470734869 
1183	 0.27666678604876 
1184	 0.276784057150775 
1185	 0.27681642674081 
1186	 0.276899794180343 
1187	 0.276941952840937 
1188	 0.277068581822673 
1189	 0.277262777418051 
1190	 0.277445594384712 
1191	 0.277687623234028 
1192	 0.277828371366491 
1193	 0.277899543811116 
1194	 0.278025398007417 
1195	 0.278107695787286 
1196	 0.27825196217855 
1197	 0.278452484901375 
1198	 0.27866342004234 
1199	 0.278906742167829 
1200	 0.279120035816522 
1201	 0.279294216971215 
1202	 0.279462578572583 
1203	 0.279655170779065 
1204	 0.279898651002809 
1205	 0.280127153922083 
1206	 0.280409096856681 
1207	 0.280674768593441 
1208	 0.280862016606205 
1209	 0.281178440366366 
1210	 0.281643784851129 
1211	 0.28197312813834 
1212	 0.282229805008329 
1213	 0.282605330194602 
1214	 0.282966665851158 
1215	 0.283364401198919 
1216	 0.283904034563071 
1217	 0.28439328161446 
1218	 0.28485895094005 
1219	 0.285284663256566 
1220	 0.285739520942649 
1221	 0.28628176356628 
1222	 0.286763782549243 
1223	 0.287257877331058 
1224	 0.287747694258106 
1225	 0.288249714852166 
1226	 0.288689077124117 
1227	 0.289096262465322 
1228	 0.289516871129189 
1229	 0.289894917919488 
1230	 0.290318177409935 
1231	 0.290803148018628 
1232	 0.291219342525911 
1233	 0.29156919160104 
1234	 0.291986781130134 
1235	 0.292442633399757 
1236	 0.292839540089425 
1237	 0.293280690565984 
1238	 0.293665249195045 
1239	 0.293945439544157 
1240	 0.29424643437016 
1241	 0.294624473273947 
1242	 0.294936143445824 
1243	 0.295264039770493 
1244	 0.295601293323041 
1245	 0.295926556289292 
1246	 0.296235423172025 
1247	 0.296555684210587 
1248	 0.296901489597688 
1249	 0.297197925209339 
1250	 0.297501393885687 
1251	 0.297720192054456 
1252	 0.297801212859305 
1253	 0.298035373609016 
1254	 0.298304064443196 
1255	 0.298557704755317 
1256	 0.298909572217611 
1257	 0.299216194832401 
1258	 0.299473621026941 
1259	 0.299722985758336 
1260	 0.299964295276072 
1261	 0.300226738438754 
1262	 0.300475128409084 
1263	 0.300728204872494 
1264	 0.300968868224633 
1265	 0.30124918548695 
1266	 0.301466868832198 
1267	 0.301613866768422 
1268	 0.301825682486352 
1269	 0.302048100758297 
1270	 0.302278736543617 
1271	 0.302555036726981 
1272	 0.302775161080444 
1273	 0.302959234565633 
1274	 0.30316745488574 
1275	 0.303331917708676 
1276	 0.30356308414013 
1277	 0.303875522350292 
1278	 0.30412673045602 
1279	 0.304382450422487 
1280	 0.304624209150436 
1281	 0.304806468253124 
1282	 0.305023535412821 
1283	 0.305283549301551 
1284	 0.305509075994484 
1285	 0.305724050231784 
1286	 0.305905128200783 
1287	 0.306191864063562 
1288	 0.306512112060642 
1289	 0.306806173885061 
1290	 0.307188947620343 
1291	 0.307467852349081 
1292	 0.307664667656919 
1293	 0.307887969105455 
1294	 0.308123833833501 
1295	 0.308306243356428 
1296	 0.308398790335478 
1297	 0.308598061297404 
1298	 0.308812783919299 
1299	 0.309043973406671 
1300	 0.309388963446062 
1301	 0.309640583692059 
1302	 0.309830436100822 
1303	 0.310037796286738 
1304	 0.310194731878708 
1305	 0.310401328245808 
1306	 0.310684000526704 
1307	 0.310894383369114 
1308	 0.311076441180772 
1309	 0.311271221502421 
1310	 0.31143852845955 
1311	 0.311540648092533 
1312	 0.311698496819022 
1313	 0.311875859638332 
1314	 0.312063873835022 
1315	 0.31226108068792 
1316	 0.312457351529031 
1317	 0.312656791740651 
1318	 0.31288894950779 
1319	 0.313117756007143 
1320	 0.313382459440721 
1321	 0.313726964338769 
1322	 0.313995202449986 
1323	 0.314229091726303 
1324	 0.314488138600333 
1325	 0.314749837653091 
1326	 0.314973506760998 
1327	 0.315241799449606 
1328	 0.315419991680195 
1329	 0.315516372230986 
1330	 0.315598657891624 
1331	 0.31561493026378 
1332	 0.315644781983466 
1333	 0.315594158403782 
1334	 0.315663924986157 
1335	 0.315710475354577 
1336	 0.315789322152393 
1337	 0.315815513058755 
1338	 0.315800623549872 
1339	 0.315904123930193 
1340	 0.316010413208629 
1341	 0.316170282384171 
1342	 0.316452091929096 
1343	 0.316674170951263 
1344	 0.31688015838683 
1345	 0.317086852852122 
1346	 0.317315395621662 
1347	 0.317517378885654 
1348	 0.317712420756456 
1349	 0.317878541714769 
1350	 0.318057843591018 
1351	 0.318166918556176 
1352	 0.318233128061059 
1353	 0.31825770631914 
1354	 0.318140489840139 
1355	 0.318162543129098 
1356	 0.318245513911415 
1357	 0.318297354790641 
1358	 0.318453486378421 
1359	 0.31853484061094 
1360	 0.31853617574129 
1361	 0.31852451488182 
1362	 0.318567643691636 
1363	 0.318610977624458 
1364	 0.318645876534068 
1365	 0.318715798443622 
1366	 0.318722509999672 
1367	 0.318693055502671 
1368	 0.318652490567702 
1369	 0.318585513838891 
1370	 0.318517885709408 
1371	 0.31843328160142 
1372	 0.318351744039078 
1373	 0.318267065478631 
1374	 0.31817583783682 
1375	 0.318108818239155 
1376	 0.317963795027055 
1377	 0.317773343564929 
1378	 0.317586231569459 
1379	 0.317346339046079 
1380	 0.317119925254508 
1381	 0.316921715280319 
1382	 0.316677180668216 
1383	 0.316365080774502 
1384	 0.316105618914633 
1385	 0.315875952157191 
1386	 0.315612808107907 
1387	 0.315330292205684 
1388	 0.315091716221563 
1389	 0.314799987933704 
1390	 0.314596595867214 
1391	 0.314465305041804 
1392	 0.314395151121038 
1393	 0.314305278094681 
1394	 0.314233682386661 
1395	 0.314212792422513 
1396	 0.314219907376803 
1397	 0.314213862435558 
1398	 0.314279103571436 
1399	 0.31425251921365 
1400	 0.314197995220137 
1401	 0.314084401587342 
1402	 0.313931106364523 
1403	 0.313733984669942 
1404	 0.313476281933873 
1405	 0.313196847172589 
1406	 0.31287982647944 
1407	 0.312551890229383 
1408	 0.312193342380635 
1409	 0.311808438657111 
1410	 0.311396235993417 
1411	 0.310978896901743 
1412	 0.310475081869949 
1413	 0.310087501837049 
1414	 0.309746961330054 
1415	 0.309424962523631 
1416	 0.309142830084983 
1417	 0.308915409779415 
1418	 0.308736646297071 
1419	 0.308557687896663 
1420	 0.308459992511226 
1421	 0.308323827280471 
1422	 0.308175712044285 
1423	 0.308003028569071 
1424	 0.307772321463183 
1425	 0.30760568594878 
1426	 0.307458459638812 
1427	 0.307301873784574 
1428	 0.307243585438169 
1429	 0.307142807516823 
1430	 0.307024328363337 
1431	 0.306877851479786 
1432	 0.30676176368678 
1433	 0.306640146784612 
1434	 0.306523243575949 
1435	 0.306432982246091 
1436	 0.306298852161115 
1437	 0.306130928840617 
1438	 0.305994853332668 
1439	 0.305837290756432 
1440	 0.305728527494834 
1441	 0.305637633691869 
1442	 0.305589862483612 
1443	 0.305601784858965 
1444	 0.305582225669502 
1445	 0.305567393513545 
1446	 0.305581191077986 
1447	 0.305564669764914 
1448	 0.305619783408051 
1449	 0.305739021074065 
1450	 0.305868614637578 
1451	 0.306063960308137 
1452	 0.306215753536318 
1453	 0.306340456517947 
1454	 0.306511328920972 
1455	 0.306680107018476 
1456	 0.306868572323731 
1457	 0.307163953576407 
1458	 0.307360080256957 
1459	 0.30749488990323 
1460	 0.307635803304648 
1461	 0.3077479146411 
1462	 0.307825308833963 
1463	 0.307917218911599 
1464	 0.30794919106101 
1465	 0.307931655223468 
1466	 0.307866118328483 
1467	 0.307750178386515 
1468	 0.307588287107177 
1469	 0.307329493228645 
1470	 0.307004509503808 
1471	 0.306617554383787 
1472	 0.306150234746156 
1473	 0.305655569044784 
1474	 0.305116615413065 
1475	 0.30450163800785 
1476	 0.303840389818291 
1477	 0.303086690724 
1478	 0.302232191163119 
1479	 0.301375283684532 
1480	 0.300472053124832 
1481	 0.29951365838539 
1482	 0.298513745829753 
1483	 0.297461902521835 
1484	 0.296326790718562 
1485	 0.295196348009996 
1486	 0.294020501947422 
1487	 0.2928834444471 
1488	 0.291695795013647 
1489	 0.290609625946263 
1490	 0.289532759660262 
1491	 0.288573932758092 
1492	 0.287642380322918 
1493	 0.286909575232716 
1494	 0.286297250786292 
1495	 0.285835172972596 
1496	 0.285568005028726 
1497	 0.285364596391076 
1498	 0.285268786371041 
1499	 0.285286178277566 
1500	 0.285315883661481 
1501	 0.285640876765827 
1502	 0.285983589882626 
1503	 0.286823440631497 
1504	 0.287944126106405 
1505	 0.28949646381658 
1506	 0.291629455599995 
1507	 0.293859934976456 
1508	 0.296632673035912 
1509	 0.299209451142911 
1510	 0.302042623152241 
1511	 0.304522882153577 
1512	 0.30694597937673 
1513	 0.309020642556002 
1514	 0.310766381130682 
1515	 0.312327299505703 
1516	 0.313511228262305 
1517	 0.314667244107094 
1518	 0.315595172492249 
1519	 0.316541169861608 
1520	 0.317453774345042 
1521	 0.318291621733879 
1522	 0.319124463349536 
1523	 0.319965883033848 
1524	 0.320812565927977 
1525	 0.32165302350721 
1526	 0.322493199370153 
1527	 0.32335256834564 
1528	 0.32416966022245 
1529	 0.324969882939487 
1530	 0.325738194237355 
1531	 0.326502239756885 
1532	 0.327182639353741 
1533	 0.327831551834664 
1534	 0.3283913064211 
1535	 0.32884708109541 
1536	 0.329338464469273 
1537	 0.3297682442751 
1538	 0.330242364065446 
1539	 0.330745725997891 
1540	 0.331213282588933 
1541	 0.331679518855895 
1542	 0.332115725901534 
1543	 0.332521809664101 
1544	 0.332931370409229 
1545	 0.333310538015468 
1546	 0.333725510481662 
1547	 0.334182100424407 
1548	 0.334565581231974 
1549	 0.334921564402953 
1550	 0.335293144947061 
1551	 0.3356176463466 
1552	 0.335972318973071 
1553	 0.33637693685275 
1554	 0.336732492505966 
1555	 0.33702664563807 
1556	 0.337397981709922 
1557	 0.337825750021462 
1558	 0.338183430066067 
1559	 0.338570138625388 
1560	 0.338891731873316 
1561	 0.339113110594807 
1562	 0.339386864632919 
1563	 0.339656886053649 
1564	 0.339945065993973 
1565	 0.340248961751081 
1566	 0.340549095192415 
1567	 0.340860260659403 
1568	 0.341168758682186 
1569	 0.341496493547645 
1570	 0.341780208064457 
1571	 0.34202787244956 
1572	 0.342305992594952 
1573	 0.342590364580645 
1574	 0.342836690130027 
1575	 0.34307991540709 
1576	 0.343326298822234 
1577	 0.343536873999874 
1578	 0.343750327694165 
1579	 0.343969436513574 
1580	 0.34420948937377 
1581	 0.344418402228249 
1582	 0.344678245899809 
1583	 0.345021610798951 
1584	 0.345309200003985 
1585	 0.345604149355037 
1586	 0.345861939151457 
1587	 0.346076831510846 
1588	 0.346295323099865 
1589	 0.346473479529116 
1590	 0.346690001191268 
1591	 0.346950171753809 
1592	 0.347155275402941 
1593	 0.347339975310816 
1594	 0.347540396887347 
1595	 0.347707046744607 
1596	 0.347885600202378 
1597	 0.348081805973227 
1598	 0.348291284417973 
1599	 0.348483291241652 
1600	 0.348707748051731 
1601	 0.349010135167172 
1602	 0.349243763586853 
1603	 0.349447276850966 
1604	 0.349653155636746 
1605	 0.349822646143281 
1606	 0.34999656364786 
1607	 0.350194032992963 
1608	 0.35036019132288 
1609	 0.350486949617949 
1610	 0.350632147542005 
1611	 0.35078812488863 
1612	 0.350914236527816 
1613	 0.351019164324497 
1614	 0.351140787476545 
1615	 0.351238623628047 
1616	 0.351356617657422 
1617	 0.351522919685388 
1618	 0.351651493806218 
1619	 0.351756053959774 
1620	 0.351866012779799 
1621	 0.35195196404045 
1622	 0.352055167494973 
1623	 0.352197383080872 
1624	 0.352293388661241 
1625	 0.352379672878373 
1626	 0.3524443594256 
1627	 0.352446144410954 
1628	 0.35248929910212 
1629	 0.352549021346741 
1630	 0.352593262213299 
1631	 0.352628123742368 
1632	 0.352689563753392 
1633	 0.352733458760143 
1634	 0.352830334351908 
1635	 0.35300802664515 
1636	 0.35314013511208 
1637	 0.353294887882676 
1638	 0.353403758620358 
1639	 0.353471292482486 
1640	 0.353535034452482 
1641	 0.353550655246423 
1642	 0.353600687357658 
1643	 0.353682966505546 
1644	 0.353723883693544 
1645	 0.353767601355107 
1646	 0.353792703481583 
1647	 0.35375167541458 
1648	 0.353747877911102 
1649	 0.353811854714098 
1650	 0.353786715829858 
1651	 0.353721160528972 
1652	 0.353656459276624 
1653	 0.353517135704119 
1654	 0.353402982938897 
1655	 0.353327368185095 
1656	 0.35320874579731 
1657	 0.353083285331319 
1658	 0.352915302198902 
1659	 0.352733054985073 
1660	 0.352491961337928 
1661	 0.352173422397568 
1662	 0.351866709628621 
1663	 0.351519444681443 
1664	 0.35117483986485 
1665	 0.350913656530577 
1666	 0.350476508223945 
1667	 0.349933666224388 
1668	 0.34938674628227 
1669	 0.348764933781565 
1670	 0.348050931279152 
1671	 0.347299958872584 
1672	 0.346479577393503 
1673	 0.34553633842232 
1674	 0.344570862575897 
1675	 0.343569716770003 
1676	 0.342550149859992 
1677	 0.341461687921725 
1678	 0.340368892694053 
1679	 0.339301897392495 
1680	 0.338148033461906 
1681	 0.336949771045341 
1682	 0.335658436250516 
1683	 0.334278646851226 
1684	 0.332885550214696 
1685	 0.331448970145109 
1686	 0.329947511770033 
1687	 0.328380398180087 
1688	 0.326797399486102 
1689	 0.32515947000949 
1690	 0.323455269928036 
1691	 0.3217172808832 
1692	 0.319997781737502 
1693	 0.318239999611535 
1694	 0.316417711486105 
1695	 0.314611174375701 
1696	 0.312686865853873 
1697	 0.310613195977801 
1698	 0.308582234763323 
1699	 0.306521222080504 
1700	 0.304519602289303 
1701	 0.302495811075258 
1702	 0.300567802723583 
1703	 0.29866361535216 
1704	 0.296860529827512 
1705	 0.295131276074118 
1706	 0.29339939198143 
1707	 0.291880173760512 
1708	 0.29041774689152 
1709	 0.289070937754889 
1710	 0.287949979333047 
1711	 0.286810271817545 
1712	 0.285769285554208 
1713	 0.284811845151956 
1714	 0.283852133658822 
1715	 0.283023894072231 
1716	 0.282267915103375 
1717	 0.281619939615186 
1718	 0.281048770454912 
1719	 0.280465497231551 
1720	 0.279913736453487 
1721	 0.279332630155961 
1722	 0.278749265828048 
1723	 0.278332485473714 
1724	 0.278093091935647 
1725	 0.277965775085801 
1726	 0.277977620567393 
1727	 0.278105324640929 
1728	 0.278248070665361 
1729	 0.278573003612969 
1730	 0.27920269178994 
1731	 0.279924385965396 
1732	 0.280793639434406 
1733	 0.281756386560989 
1734	 0.282757375643937 
1735	 0.283834660282393 
1736	 0.284859807818744 
1737	 0.285820130745541 
1738	 0.286482848837554 
1739	 0.287081801431484 
1740	 0.287560314405154 
1741	 0.287989558215967 
1742	 0.288419270347595 
1743	 0.28864632120678 
1744	 0.28867256438458 
1745	 0.288681926296362 
1746	 0.288553589266566 
1747	 0.288414863291519 
1748	 0.288228830393633 
1749	 0.288097318681384 
1750	 0.28784453407843 
1751	 0.287739193268437 
1752	 0.287731876027577 
1753	 0.287812782154919 
1754	 0.287980926275234 
1755	 0.288226445271182 
1756	 0.28855328854303 
1757	 0.288938936224142 
1758	 0.289442402649511 
1759	 0.289965715063652 
1760	 0.290705288038758 
1761	 0.291600083023997 
1762	 0.292433114655672 
1763	 0.293449371390556 
1764	 0.294474367657206 
1765	 0.29550441862015 
1766	 0.296732522378434 
1767	 0.297957026280207 
1768	 0.299273974915754 
1769	 0.300713842866477 
1770	 0.302073509575622 
1771	 0.303414331507709 
1772	 0.304699220837109 
1773	 0.305880099410563 
1774	 0.307084625632336 
1775	 0.308223915313082 
1776	 0.309280302304818 
1777	 0.310193917432765 
1778	 0.31094416688197 
1779	 0.311698680675235 
1780	 0.312402821992106 
1781	 0.313022192481406 
1782	 0.313612096391035 
1783	 0.314118968494558 
1784	 0.314632594010073 
1785	 0.315252199468807 
1786	 0.315744215938748 
1787	 0.316207370711496 
1788	 0.316628928256223 
1789	 0.316995770762485 
1790	 0.317270418891808 
1791	 0.317445041228123 
1792	 0.31764203215767 
1793	 0.317734416296289 
1794	 0.317881296866013 
1795	 0.318087557078112 
1796	 0.318260553275788 
1797	 0.318501963493721 
1798	 0.318797944168036 
1799	 0.319051122908644 
1800	 0.319310034906153 
1801	 0.320306882346902 
1802	 0.320612740523043 
1803	 0.320882089715553 
1804	 0.321130746320257 
1805	 0.32144833844398 
1806	 0.321689175052515 
1807	 0.321876258769028 
1808	 0.322107106812386 
1809	 0.32230774110626 
1810	 0.322560992908523 
1811	 0.322872926279699 
1812	 0.323158348805927 
1813	 0.323467534018138 
1814	 0.323740485578834 
1815	 0.324033378439962 
1816	 0.324338221320244 
1817	 0.324629393815015 
1818	 0.32489367855289 
1819	 0.325226589900729 
1820	 0.325607310732422 
1821	 0.325953841680128 
1822	 0.326352565574574 
1823	 0.326708582233392 
1824	 0.326975649023096 
1825	 0.327232906689137 
1826	 0.327551792376776 
1827	 0.327895025286753 
1828	 0.328225221436933 
1829	 0.328614094472841 
1830	 0.328921842536816 
1831	 0.329172133063166 
1832	 0.32944254528855 
1833	 0.329634504152285 
1834	 0.329921934392538 
1835	 0.330269418736364 
1836	 0.330573256550984 
1837	 0.330894358857904 
1838	 0.33128978011615 
1839	 0.331577180164856 
1840	 0.331760153811024 
1841	 0.332049789772192 
1842	 0.332335965564496 
1843	 0.33266745168278 
1844	 0.333071697398016 
1845	 0.333446384115931 
1846	 0.333778044069902 
1847	 0.334083701413195 
1848	 0.334336483809999 
1849	 0.33449267572914 
1850	 0.334705025949682 
1851	 0.334900431338228 
1852	 0.335140622817651 
1853	 0.335330658733444 
1854	 0.33549851601745 
1855	 0.335655617527932 
1856	 0.335722702329949 
1857	 0.335761881031359 
1858	 0.335808222068826 
1859	 0.335818014724863 
1860	 0.335774419449299 
1861	 0.335709236873606 
1862	 0.335605524728198 
1863	 0.335552492991702 
1864	 0.335421439721025 
1865	 0.335275481361345 
1866	 0.335177768462102 
1867	 0.334943412475943 
1868	 0.334611296848263 
1869	 0.334271845311469 
1870	 0.333886939502059 
1871	 0.33339801274852 
1872	 0.332925829597052 
1873	 0.332476975325354 
1874	 0.331978182668238 
1875	 0.331391779569611 
1876	 0.330720948618268 
1877	 0.3299601211985 
1878	 0.329061103182158 
1879	 0.328032130731861 
1880	 0.326978374712901 
1881	 0.325851432342141 
1882	 0.324648969354166 
1883	 0.323388577562008 
1884	 0.32201588596413 
1885	 0.320541141192891 
1886	 0.319052201478631 
1887	 0.31751044904574 
1888	 0.315971256436511 
1889	 0.314501057912879 
1890	 0.313030559760898 
1891	 0.311575599745684 
1892	 0.310158887613072 
1893	 0.308683395296464 
1894	 0.307164880884027 
1895	 0.305683431474142 
1896	 0.304183810484221 
1897	 0.302639474594623 
1898	 0.30122273891309 
1899	 0.299703755901809 
1900	 0.298126456153294 
1901	 0.296567956570371 
1902	 0.294961630281069 
1903	 0.293442459956346 
1904	 0.291986452666755 
1905	 0.290587775808678 
1906	 0.289252935178558 
1907	 0.288018058681506 
1908	 0.286810253811189 
1909	 0.285645270768337 
1910	 0.284593671789542 
1911	 0.283508691097178 
1912	 0.282465002422846 
1913	 0.28153902532927 
1914	 0.280628606764068 
1915	 0.279834588915789 
1916	 0.27915531731414 
1917	 0.278556036494816 
1918	 0.277980325857173 
1919	 0.277474418052636 
1920	 0.276947838009023 
1921	 0.276451868536878 
1922	 0.276016973866048 
1923	 0.275643559979421 
1924	 0.275373762506298 
1925	 0.275163268397218 
1926	 0.274977921315798 
1927	 0.274863653851674 
1928	 0.27473505204292 
1929	 0.274614274997576 
1930	 0.27452271929003 
1931	 0.274518899504638 
1932	 0.274476819281591 
1933	 0.274394578465496 
1934	 0.274451186770132 
1935	 0.274526033231921 
1936	 0.274649488169867 
1937	 0.27483292539911 
1938	 0.275140489959815 
1939	 0.275395640411697 
1940	 0.275640977747149 
1941	 0.27594835951173 
1942	 0.276283249091445 
1943	 0.276664281533478 
1944	 0.277024654403443 
1945	 0.27738911664746 
1946	 0.277824026478943 
1947	 0.278271386957704 
1948	 0.278749406860887 
1949	 0.279275569816348 
1950	 0.279768199045695 
1951	 0.280216886400586 
1952	 0.28069974317649 
1953	 0.281191562352394 
1954	 0.281707339161252 
1955	 0.282250227034142 
1956	 0.282794510509815 
1957	 0.283280340529524 
1958	 0.283753549233221 
1959	 0.284230442101076 
1960	 0.284717451466184 
1961	 0.285174681638645 
1962	 0.285654754328393 
1963	 0.286103514426217 
1964	 0.286541652028989 
1965	 0.286902253661322 
1966	 0.2872420167033 
1967	 0.287555527306257 
1968	 0.287770028074793 
1969	 0.287905908763807 
1970	 0.288088609951106 
1971	 0.288290534654201 
1972	 0.288495737154816 
1973	 0.288706290364669 
1974	 0.288909259010757 
1975	 0.289096950974712 
1976	 0.289321937129799 
1977	 0.289530096686792 
1978	 0.289798896971369 
1979	 0.290102516406722 
1980	 0.290444859426339 
1981	 0.290827576412266 
1982	 0.291314246672353 
1983	 0.291872296072938 
1984	 0.292530111635588 
1985	 0.29326737054929 
1986	 0.294012432586879 
1987	 0.294724134138538 
1988	 0.295466335755112 
1989	 0.296152856249115 
1990	 0.296807114639872 
1991	 0.297423794134157 
1992	 0.297998999920328 
1993	 0.298586156423671 
1994	 0.299116157315233 
1995	 0.299634006902907 
1996	 0.30022013085346 
1997	 0.300775396178286 
1998	 0.301307583135966 
1999	 0.301874936088734 
2000	 0.30233404123846 
2001	 0.302735709678477 
2002	 0.303100182990892 
2003	 0.303410456523905 
2004	 0.303671274114949 
2005	 0.303888017817484 
2006	 0.304050241798454 
2007	 0.304149792335283 
2008	 0.304199611202285 
2009	 0.304220752475743 
2010	 0.304245047067702 
2011	 0.304201443238173 
2012	 0.304085138012249 
2013	 0.303944761851417 
2014	 0.303743615303886 
2015	 0.303513832360093 
2016	 0.303285524113704 
2017	 0.302973221986941 
2018	 0.302553299975155 
2019	 0.302158569007381 
2020	 0.301742249770707 
2021	 0.301264693355906 
2022	 0.300811266900604 
2023	 0.300330160731105 
2024	 0.299806260090015 
2025	 0.299216769165374 
2026	 0.298653308764199 
2027	 0.298043293704046 
2028	 0.297531518066766 
2029	 0.29705957688968 
2030	 0.2966043026687 
2031	 0.296274461104275 
2032	 0.29581708514011 
2033	 0.29536364356485 
2034	 0.294803168658109 
2035	 0.294187115635399 
2036	 0.293435000679868 
2037	 0.292693943260147 
2038	 0.291752325859354 
2039	 0.290786802384349 
2040	 0.289637754238115 
2041	 0.288681456038698 
2042	 0.287549718811628 
2043	 0.286883866460728 
2044	 0.286437667958344 
2045	 0.286223615041669 
2046	 0.286370313052027 
2047	 0.286548911200233 
2048	 0.287004306970016 
2049	 0.287366240304983 
2050	 0.287857162114924 
2051	 0.288259458000699 
2052	 0.288601208626161 
2053	 0.288834733040256 
2054	 0.289004894306644 
2055	 0.289054253124001 
2056	 0.28914759495945 
2057	 0.289169164085573 
2058	 0.289240461640898 
2059	 0.28930233198276 
2060	 0.289426889695066 
2061	 0.289544024514706 
2062	 0.289736392554967 
2063	 0.290012853473748 
2064	 0.290297998287705 
2065	 0.290580531511689 
2066	 0.29100189871767 
2067	 0.291408176946315 
2068	 0.291743367537481 
2069	 0.292118540360662 
2070	 0.292531097203 
2071	 0.292848373535738 
2072	 0.29313316711092 
2073	 0.293427735734226 
2074	 0.293703751998976 
2075	 0.293915333411389 
2076	 0.29412769885692 
2077	 0.294279798981221 
2078	 0.294332526370006 
2079	 0.294379704773684 
2080	 0.294444702284947 
2081	 0.294421783123326 
2082	 0.294309350197704 
2083	 0.294187990617647 
2084	 0.294031257724523 
2085	 0.293861639608565 
2086	 0.293733506737986 
2087	 0.293654020500317 
2088	 0.293514802604828 
2089	 0.293349293298249 
2090	 0.293216144648363 
2091	 0.293081279684527 
2092	 0.292939176897738 
2093	 0.292812939911444 
2094	 0.292677679917739 
2095	 0.292500580902864 
2096	 0.292359601190097 
2097	 0.292215250463302 
2098	 0.292149710116103 
2099	 0.292122132669967 
2100	 0.292008009925854 
2101	 0.29178651818325 
2102	 0.291488640658546 
2103	 0.291198891069487 
2104	 0.290771039428792 
2105	 0.290450867843391 
2106	 0.290195617397486 
2107	 0.289915647367937 
2108	 0.289673973180308 
2109	 0.289351251402233 
2110	 0.289006505908716 
2111	 0.288631068302455 
2112	 0.288183437190405 
2113	 0.287738901156599 
2114	 0.28725230032031 
2115	 0.286806134697681 
2116	 0.286382398936487 
2117	 0.285927304762714 
2118	 0.285471301099183 
2119	 0.285054439891539 
2120	 0.284567414033256 
2121	 0.28400001915952 
2122	 0.283505010549857 
2123	 0.282994627635507 
2124	 0.282543699471148 
2125	 0.282142365684948 
2126	 0.281753923181329 
2127	 0.281416156937391 
2128	 0.281057175910823 
2129	 0.280663023427746 
2130	 0.280356964753882 
2131	 0.280037728040049 
2132	 0.279819798679244 
2133	 0.27975087168123 
2134	 0.279662636454444 
2135	 0.279554607012604 
2136	 0.27945299935478 
2137	 0.279295990495111 
2138	 0.279056787794174 
2139	 0.278887840992087 
2140	 0.27868672154721 
2141	 0.278603610758733 
2142	 0.278603176575938 
2143	 0.278569397731198 
2144	 0.278590705541692 
2145	 0.278609200491491 
2146	 0.278580404700216 
2147	 0.278635092530712 
2148	 0.278776836771196 
2149	 0.278889020182414 
2150	 0.279024090255295 
2151	 0.279158910752443 
2152	 0.279274174558969 
2153	 0.279429648956993 
2154	 0.279581231081053 
2155	 0.27974210474994 
2156	 0.2799102534647 
2157	 0.280097645797884 
2158	 0.280236985405381 
2159	 0.280379712460234 
2160	 0.280484182712346 
2161	 0.280537087581901 
2162	 0.280600164239301 
2163	 0.280666292003514 
2164	 0.280699473614333 
2165	 0.280695687480254 
2166	 0.280706470349848 
2167	 0.280698830960805 
2168	 0.280699928182303 
2169	 0.280696376054431 
2170	 0.280715769291009 
2171	 0.280738444418771 
2172	 0.280776173101606 
2173	 0.280853831809697 
2174	 0.28091621877023 
2175	 0.280932007309047 
2176	 0.280960920919632 
2177	 0.281007617940433 
2178	 0.28105627237519 
2179	 0.281064702194032 
2180	 0.281094775185217 
2181	 0.281087616832016 
2182	 0.280990777997431 
2183	 0.280980916420366 
2184	 0.281050284180007 
2185	 0.281016045437071 
2186	 0.281011560355265 
2187	 0.280893563546721 
2188	 0.280597146924142 
2189	 0.2804197091082 
2190	 0.280256627391836 
2191	 0.280060599697125 
2192	 0.279926999867447 
2193	 0.279741815883649 
2194	 0.279502453481782 
2195	 0.279240490956431 
2196	 0.27900131551786 
2197	 0.278663755092429 
2198	 0.278308873077792 
2199	 0.277860525275465 
2200	 0.277375111209352 
2201	 0.276862193500042 
2202	 0.276228595124585 
2203	 0.2755302413707 
2204	 0.274727496362581 
2205	 0.27377421024189 
2206	 0.2728267192053 
2207	 0.271798180839268 
2208	 0.2707566570138 
2209	 0.269580976991336 
2210	 0.268612725224821 
2211	 0.26756247506047 
2212	 0.266850178643832 
2213	 0.266307004681554 
2214	 0.266032662147031 
2215	 0.266063370725196 
2216	 0.266203591559401 
2217	 0.266773955916794 
2218	 0.267127257256996 
2219	 0.267605193804329 
2220	 0.267884715527087 
2221	 0.268064799812907 
2222	 0.268053614228912 
2223	 0.267981400618912 
2224	 0.267768706370472 
2225	 0.267304960447113 
2226	 0.266708817661564 
2227	 0.266036576793958 
2228	 0.265152005152169 
2229	 0.264328848114782 
2230	 0.26349952421673 
2231	 0.262534083759423 
2232	 0.26149248714119 
2233	 0.260371805271882 
2234	 0.259218876176129 
2235	 0.257848120727581 
2236	 0.256365497106154 
2237	 0.254731386251772 
2238	 0.252784613805879 
2239	 0.250928926852783 
2240	 0.249078182534837 
2241	 0.247072316135291 
2242	 0.245077234554254 
2243	 0.242868367567968 
2244	 0.24034578792976 
2245	 0.237920873564231 
2246	 0.235328717928515 
2247	 0.232856629532311 
2248	 0.230575618825497 
2249	 0.228120744011328 
2250	 0.225663027361509 
2251	 0.223122970502602 
2252	 0.220202723761095 
2253	 0.217421496872554 
2254	 0.214669961955436 
2255	 0.211926196869298 
2256	 0.209589462086031 
2257	 0.207103430741768 
2258	 0.204524509854308 
2259	 0.201955161065186 
2260	 0.199263869317657 
2261	 0.196352498856729 
2262	 0.193665118531569 
2263	 0.191035602966336 
2264	 0.18834944320099 
2265	 0.18585069864321 
2266	 0.182988240347661 
2267	 0.180131905838626 
2268	 0.176810683648432 
2269	 0.173182653585751 
2270	 0.169284079829716 
2271	 0.164973839577613 
2272	 0.160476916567653 
2273	 0.155781451560304 
2274	 0.150733241704853 
2275	 0.14518872261833 
2276	 0.139749880204784 
2277	 0.133752007969225 
2278	 0.128383956261196 
2279	 0.122960632317175 
2280	 0.118264457283219 
2281	 0.113966642972402 
2282	 0.110308217709634 
2283	 0.107194193404924 
2284	 0.10487472690531 
2285	 0.102925336762586 
2286	 0.10171202131745 
2287	 0.101125921591136 
2288	 0.101023767085643 
2289	 0.10157381777964 
2290	 0.102673693856053 
2291	 0.104052408866467 
2292	 0.10555992167034 
2293	 0.107448565666896 
2294	 0.109417065671165 
2295	 0.111410686681789 
2296	 0.113571400055981 
2297	 0.115398523918115 
2298	 0.117060213699386 
2299	 0.118640318438198 
2300	 0.119966499055814 
2301	 0.121399176470506 
2302	 0.122811326248384 
2303	 0.124116951973863 
2304	 0.12542031335444 
2305	 0.126638517172538 
2306	 0.127615591647457 
2307	 0.128882383948674 
2308	 0.130178526280817 
2309	 0.131622832230699 
2310	 0.133369802558082 
2311	 0.134901390444441 
2312	 0.136415785145571 
2313	 0.137925866898857 
2314	 0.139428629101627 
2315	 0.140774838627419 
2316	 0.142176590749691 
2317	 0.143284417941748 
2318	 0.144131402889468 
2319	 0.144889984323858 
2320	 0.145509550342009 
2321	 0.145945825772206 
2322	 0.146360420635413 
2323	 0.146314045944342 
2324	 0.146034021638508 
2325	 0.145363201462238 
2326	 0.144291091149562 
2327	 0.14287441144368 
2328	 0.140993413392579 
2329	 0.138892637281376 
2330	 0.136513113955002 
2331	 0.133658450253258 
2332	 0.130663747634659 
2333	 0.127244629692658 
2334	 0.123376698710395 
2335	 0.1195171637958 
2336	 0.115209579930841 
2337	 0.110978778786219 
2338	 0.107090999742771 
2339	 0.10300160723353 
2340	 9.93043950907791E-02 
2341	 9.59306558769232E-02 
2342	 9.24597045873176E-02 
2343	 8.93499285834544E-02 
2344	 8.66761412658785E-02 
2345	 8.45372215943653E-02 
2346	 8.30329909163397E-02 
2347	 8.21225556384763E-02 
2348	 8.14891549088045E-02 
2349	 8.11185056139851E-02 
2350	 8.07311731025144E-02 
2351	 8.02694679582625E-02 
2352	 8.01031929526668E-02 
2353	 7.98397801719233E-02 
2354	 7.97495608930405E-02 
2355	 7.97679830327433E-02 
2356	 8.00005133998768E-02 
2357	 8.09189317772206E-02 
2358	 8.24428715787359E-02 
2359	 8.49438853929857E-02 
2360	 8.82777403832649E-02 
2361	 9.20474131898356E-02 
2362	 9.61698012562634E-02 
2363	 0.100881665593028 
2364	 0.105603902971758 
2365	 0.110140797681079 
2366	 0.114555211149982 
2367	 0.118450641844371 
2368	 0.122004325530894 
2369	 0.12527360933938 
2370	 0.128079070545283 
2371	 0.130227479029268 
2372	 0.13204354089387 
2373	 0.133564118565343 
2374	 0.134891887296494 
2375	 0.136184926152069 
2376	 0.136951086713386 
2377	 0.137227127804925 
2378	 0.137390776160196 
2379	 0.137655799853672 
2380	 0.138025775767225 
2381	 0.13840922922195 
2382	 0.13881714066205 
2383	 0.139187417051065 
2384	 0.139554373641941 
2385	 0.13997561972391 
2386	 0.140528824454897 
2387	 0.141077158503086 
2388	 0.141840917255655 
2389	 0.142851062367155 
2390	 0.143625984039887 
2391	 0.144421201267107 
2392	 0.14516550234183 
2393	 0.145911060728413 
2394	 0.146426560162292 
2395	 0.146842636975982 
2396	 0.147227889621404 
2397	 0.147408054611652 
2398	 0.147540004845303 
2399	 0.147593869119836 
2400	 0.147736315046474 
2401	 0.147466325855163 
2402	 0.147787365447457 
2403	 0.148862076246687 
2404	 0.149663489704961 
2405	 0.150753709468897 
2406	 0.152041785037217 
2407	 0.152683465367289 
2408	 0.153118721098518 
2409	 0.153494408806023 
2410	 0.153677837048679 
2411	 0.153944151664349 
2412	 0.154297880808438 
2413	 0.154999535554679 
2414	 0.155247236134083 
2415	 0.154990154912966 
2416	 0.155241799482987 
2417	 0.155166495757483 
2418	 0.155146978962313 
2419	 0.155835346044563 
2420	 0.156060223071811 
2421	 0.156148472733383 
2422	 0.156646395167101 
2423	 0.156744984724717 
2424	 0.156837373198608 
2425	 0.157218121138991 
2426	 0.157203860155734 
2427	 0.15751232721295 
2428	 0.157751180430141 
2429	 0.157534882275024 
2430	 0.158133843212188 
2431	 0.158420356640731 
2432	 0.158497811333912 
2433	 0.159187774370063 
2434	 0.159014468266357 
2435	 0.158677681679625 
2436	 0.158789353961231 
2437	 0.158343852565829 
2438	 0.1578102210064 
2439	 0.157927979048311 
2440	 0.158136371185949 
2441	 0.158113440276876 
2442	 0.158365008307836 
2443	 0.158551735195212 
2444	 0.158363652108381 
2445	 0.158226005436358 
2446	 0.158119646588828 
2447	 0.157864971110154 
2448	 0.157343879116822 
2449	 0.157124224501654 
2450	 0.157169563571677 
2451	 0.156969640825708 
2452	 0.157134318371315 
2453	 0.156952942642697 
2454	 0.15615812160323 
2455	 0.155734703046305 
2456	 0.154927915400432 
2457	 0.154318909069867 
2458	 0.154667794665554 
2459	 0.154537572788778 
2460	 0.154501635074778 
2461	 0.154752318660799 
2462	 0.154424136958861 
2463	 0.154246233672946 
2464	 0.154043809451666 
2465	 0.153466066687848 
2466	 0.152829495772971 
2467	 0.152252710094501 
2468	 0.152018701814642 
2469	 0.151839842121385 
2470	 0.151936348551008 
2471	 0.152238931034704 
2472	 0.151780567517704 
2473	 0.151486003104955 
2474	 0.151658947220913 
2475	 0.151513147106522 
2476	 0.15164479911215 
2477	 0.151867067633774 
2478	 0.151536696296137 
2479	 0.151308760345658 
2480	 0.151781805503368 
2481	 0.151683604117325 
2482	 0.151827008232743 
2483	 0.151218140525574 
2484	 0.150443986468542 
2485	 0.150670630570841 
2486	 0.151356743757466 
2487	 0.152978621419662 
2488	 0.153770466003484 
2489	 0.153609806568704 
2490	 0.153350114785733 
2491	 0.152342943714945 
2492	 0.152458010638795 
2493	 0.1530973471946 
2494	 0.15304386856541 
2495	 0.153322688849176 
2496	 0.152833799013486 
2497	 0.152839063381129 
2498	 0.153299256146424 
2499	 0.153599343668547 
2500	 0.156209265850063 
