Wavelength	Tablay400051.asd
350	 0.441830566690913 
351	 0.38769288724937 
352	 0.35669694082402 
353	 0.386141027578522 
354	 0.327975462483533 
355	 0.338491459795867 
356	 0.349950796225964 
357	 0.296496427227613 
358	 0.252040589318981 
359	 0.209580016161596 
360	 0.200584850797368 
361	 0.261393217741847 
362	 0.255711086074257 
363	 0.244700568257713 
364	 0.253019250467961 
365	 0.229306457222544 
366	 0.200179470813039 
367	 0.186228341535314 
368	 0.193711349566304 
369	 0.22518877048184 
370	 0.198194483065063 
371	 0.155646656911705 
372	 0.203322379993515 
373	 0.20988359941026 
374	 0.186870480563725 
375	 0.162939943396037 
376	 0.182431193280354 
377	 0.165489087059823 
378	 0.157969178318769 
379	 0.189759441949223 
380	 0.136847649472949 
381	 0.122338688955542 
382	 0.143546965661593 
383	 0.123378386761714 
384	 0.127311810631434 
385	 0.145585381906627 
386	 0.156600431937174 
387	 0.14341377670858 
388	 0.132500472810396 
389	 0.137120343803072 
390	 0.155644389922978 
391	 0.148525969027206 
392	 0.139454579492462 
393	 0.126017848508834 
394	 9.25083573011377E-02 
395	 0.104750647758646 
396	 0.107632188054274 
397	 8.87529232305982E-02 
398	 0.13283484642452 
399	 0.139088758506227 
400	 0.123326290470697 
401	 0.118430631938007 
402	 9.12968036029157E-02 
403	 6.94948920552939E-02 
404	 7.09956900327628E-02 
405	 0.102255662242406 
406	 0.120243183656639 
407	 0.116869346093077 
408	 9.89671221103242E-02 
409	 8.43874512140216E-02 
410	 0.0899045813764 
411	 9.85862979648741E-02 
412	 8.95665516991521E-02 
413	 8.22924994786418E-02 
414	 7.79727159237014E-02 
415	 7.84300781404329E-02 
416	 8.59645331580539E-02 
417	 7.99317310011627E-02 
418	 7.52731605702427E-02 
419	 8.14436790936499E-02 
420	 8.30665784797494E-02 
421	 7.73914281300817E-02 
422	 7.15839127218452E-02 
423	 7.44882147726007E-02 
424	 7.45013686350803E-02 
425	 7.02823763403777E-02 
426	 6.58198706657748E-02 
427	 0.069631824390158 
428	 6.88326738939309E-02 
429	 6.75981441453818E-02 
430	 6.97159792793988E-02 
431	 6.61070814080317E-02 
432	 6.73885617271547E-02 
433	 7.17739856670589E-02 
434	 7.13994420971421E-02 
435	 6.87318371736413E-02 
436	 6.67467497682825E-02 
437	 6.71113850078915E-02 
438	 7.00785421875888E-02 
439	 6.45692936168131E-02 
440	 0.059401191845861 
441	 6.39247974649382E-02 
442	 6.69509834751158E-02 
443	 6.66471173763294E-02 
444	 0.063836796186525 
445	 6.11296745737447E-02 
446	 5.70914384617189E-02 
447	 5.72415936405671E-02 
448	 6.27212004826644E-02 
449	 0.064059366829642 
450	 6.19963047205264E-02 
451	 6.06962587337019E-02 
452	 6.37076618760677E-02 
453	 0.061384551566529 
454	 5.79965005673315E-02 
455	 5.74289962166407E-02 
456	 6.18699948659707E-02 
457	 6.19450263909245E-02 
458	 6.08611130904286E-02 
459	 6.20868657973891E-02 
460	 6.14734182054027E-02 
461	 6.00910244391912E-02 
462	 5.90398459715524E-02 
463	 5.92753378481106E-02 
464	 6.05562549013827E-02 
465	 5.96714129845363E-02 
466	 5.70663888443545E-02 
467	 5.90326456533554E-02 
468	 6.00479726582372E-02 
469	 5.93862138067709E-02 
470	 5.80742000443543E-02 
471	 5.81695495122228E-02 
472	 5.91192269527754E-02 
473	 5.93025738206358E-02 
474	 0.056778718829819 
475	 5.58954562918991E-02 
476	 5.64173099865219E-02 
477	 5.72443211055704E-02 
478	 5.71337830889604E-02 
479	 0.057090825473792 
480	 5.72302925363608E-02 
481	 5.72798489388974E-02 
482	 5.66397074970059E-02 
483	 5.65022549318344E-02 
484	 5.71905023291448E-02 
485	 5.79467208243475E-02 
486	 5.69277513839225E-02 
487	 5.57154003026356E-02 
488	 5.58340060507483E-02 
489	 5.63633306952666E-02 
490	 5.56792532606917E-02 
491	 5.45355294346502E-02 
492	 5.48266054772545E-02 
493	 5.51995244463112E-02 
494	 5.52738776449284E-02 
495	 5.49187877769994E-02 
496	 5.40777021245973E-02 
497	 5.49487939966199E-02 
498	 5.59620035351807E-02 
499	 5.52798831074056E-02 
500	 5.53835621379008E-02 
501	 5.51188608244811E-02 
502	 5.46746086573851E-02 
503	 5.53570778671574E-02 
504	 5.53095243388822E-02 
505	 5.48768078306543E-02 
506	 5.46895193550625E-02 
507	 5.51605980650039E-02 
508	 5.53720978742139E-02 
509	 5.50934463883564E-02 
510	 5.45841080122867E-02 
511	 5.51615779537447E-02 
512	 5.49967038819666E-02 
513	 5.41414299000664E-02 
514	 5.53143103504632E-02 
515	 5.50544260984049E-02 
516	 5.43482741649976E-02 
517	 5.46158069471804E-02 
518	 5.47914723585608E-02 
519	 5.46603278342187E-02 
520	 5.46856489080309E-02 
521	 5.55957165243435E-02 
522	 5.56524133019399E-02 
523	 5.51894984927017E-02 
524	 5.48805415717424E-02 
525	 0.055541287577041 
526	 0.055861792665147 
527	 5.56547665466501E-02 
528	 5.53059089214082E-02 
529	 5.58851888517824E-02 
530	 5.65214680610239E-02 
531	 5.66948837124934E-02 
532	 5.63994854067874E-02 
533	 0.056355031965625 
534	 5.64256944450727E-02 
535	 5.63945461960858E-02 
536	 0.056355844897616 
537	 5.67158366435028E-02 
538	 5.71590105498191E-02 
539	 5.71071284946564E-02 
540	 5.75159315948107E-02 
541	 5.77935821428923E-02 
542	 5.77041279997898E-02 
543	 5.78260943972473E-02 
544	 5.80519337250303E-02 
545	 5.84315359906021E-02 
546	 5.89253812212332E-02 
547	 5.89684657970746E-02 
548	 5.90789362042252E-02 
549	 5.94147758925817E-02 
550	 5.97793547418472E-02 
551	 6.01108326743718E-02 
552	 6.05049074366601E-02 
553	 6.10255632205595E-02 
554	 6.15957217810494E-02 
555	 0.062056917884985 
556	 6.25195786193148E-02 
557	 6.31642752333126E-02 
558	 6.36004177391201E-02 
559	 6.40974134272101E-02 
560	 6.48980894851439E-02 
561	 6.61320500150118E-02 
562	 6.69589317289316E-02 
563	 6.76902088198619E-02 
564	 6.87590336179682E-02 
565	 6.97527652664684E-02 
566	 7.07293150347587E-02 
567	 0.071854355993448 
568	 0.073316191574345 
569	 7.46016675213651E-02 
570	 7.58472139162911E-02 
571	 7.73177050812669E-02 
572	 7.93660333147637E-02 
573	 8.14091742742024E-02 
574	 8.34747331476157E-02 
575	 8.57631331490477E-02 
576	 0.087934945578834 
577	 9.03351616582733E-02 
578	 9.29948143378167E-02 
579	 0.095556531853761 
580	 9.83384498710228E-02 
581	 0.101413798930956 
582	 0.104729749248235 
583	 0.107952724240825 
584	 0.11172857972272 
585	 0.116046560422796 
586	 0.120511241675659 
587	 0.125118390885572 
588	 0.130051298637648 
589	 0.135503208521809 
590	 0.141653492763832 
591	 0.147897514295013 
592	 0.154240201336275 
593	 0.160820362982876 
594	 0.167391354498975 
595	 0.174269179016812 
596	 0.181415766234366 
597	 0.188499804317956 
598	 0.195703318208781 
599	 0.203130846082988 
600	 0.210795266064083 
601	 0.218487092377139 
602	 0.226101696271091 
603	 0.233675871743432 
604	 0.24124773474855 
605	 0.248496680309332 
606	 0.255643906587337 
607	 0.262661213965898 
608	 0.269131938973172 
609	 0.27523465769068 
610	 0.281091759718637 
611	 0.2867528170482 
612	 0.291986758225692 
613	 0.296986373766717 
614	 0.301697315831975 
615	 0.305942105019243 
616	 0.309909891861172 
617	 0.313645332208595 
618	 0.317202260195543 
619	 0.320721891937618 
620	 0.323760066260882 
621	 0.326455539951953 
622	 0.329078421836066 
623	 0.331423327512951 
624	 0.333823717746199 
625	 0.336226511756884 
626	 0.338227499126629 
627	 0.340032126503051 
628	 0.341773063197676 
629	 0.343491900548276 
630	 0.345015239518812 
631	 0.346606315117298 
632	 0.348065572155841 
633	 0.349106258127679 
634	 0.350363312279634 
635	 0.351746360617526 
636	 0.353045392739946 
637	 0.353989157426049 
638	 0.355043634142494 
639	 0.356100129447834 
640	 0.357030943915509 
641	 0.358151028202172 
642	 0.359101192608008 
643	 0.359951231302213 
644	 0.360972501347904 
645	 0.361593402351453 
646	 0.36228123669773 
647	 0.363233058616194 
648	 0.364012549615228 
649	 0.364666898090686 
650	 0.365288682588484 
651	 0.366000413520469 
652	 0.366960136261643 
653	 0.367702341998605 
654	 0.36821537159695 
655	 0.368853165067143 
656	 0.369473573264194 
657	 0.370166904587935 
658	 0.370915909317681 
659	 0.371390851229894 
660	 0.372001001844072 
661	 0.372705940297878 
662	 0.373304295620002 
663	 0.373706849918191 
664	 0.374151869503257 
665	 0.374748645010744 
666	 0.375444046884615 
667	 0.37603558150208 
668	 0.376524089890862 
669	 0.376984884230376 
670	 0.377564287160175 
671	 0.37810823312237 
672	 0.378573843971581 
673	 0.378995535990782 
674	 0.379531306901895 
675	 0.380040097175984 
676	 0.380514854054268 
677	 0.381134286871098 
678	 0.381482672305069 
679	 0.381795812153952 
680	 0.382302626777488 
681	 0.38271934618095 
682	 0.3832212214535 
683	 0.383751750370913 
684	 0.384157919781778 
685	 0.384589738030775 
686	 0.385077072454202 
687	 0.385543772649441 
688	 0.385785058519694 
689	 0.386331314226047 
690	 0.386850089409978 
691	 0.387039742800249 
692	 0.387536981271373 
693	 0.387931345770053 
694	 0.388225673561254 
695	 0.388664995884934 
696	 0.389091521156119 
697	 0.389553584948135 
698	 0.390043701185444 
699	 0.390436509459727 
700	 0.390727365859757 
701	 0.391062803208118 
702	 0.391525489486316 
703	 0.39177475069239 
704	 0.392091099551827 
705	 0.392470888992183 
706	 0.392734291035256 
707	 0.393128120044125 
708	 0.39345170268041 
709	 0.393662650248433 
710	 0.394073337857881 
711	 0.394497791934969 
712	 0.394900813975272 
713	 0.395271638939098 
714	 0.395504716779788 
715	 0.395817877258445 
716	 0.396220018858217 
717	 0.39656770749297 
718	 0.396866577714717 
719	 0.397187480255019 
720	 0.397545901977808 
721	 0.397845775049064 
722	 0.398174495595915 
723	 0.398476071934219 
724	 0.398711487571283 
725	 0.399071845235535 
726	 0.39949739155567 
727	 0.399850921094372 
728	 0.399988497570726 
729	 0.400219387569779 
730	 0.400475911350247 
731	 0.400732178152364 
732	 0.401113919627529 
733	 0.401591826658557 
734	 0.401980636616186 
735	 0.402154797665153 
736	 0.402380383500791 
737	 0.402509135060412 
738	 0.402683662743839 
739	 0.403167041396323 
740	 0.403466530936304 
741	 0.403693757866436 
742	 0.403996545385081 
743	 0.404462289780931 
744	 0.404792724472094 
745	 0.405038955680178 
746	 0.405295650159017 
747	 0.405434610448505 
748	 0.405647218736365 
749	 0.406018018427731 
750	 0.406520508954288 
751	 0.406861635459764 
752	 0.407155018408354 
753	 0.407420814407495 
754	 0.407506685765313 
755	 0.4077549105748 
756	 0.408056633922638 
757	 0.408298205095846 
758	 0.408695888629198 
759	 0.40894465128493 
760	 0.409136853996326 
761	 0.409497715123814 
762	 0.409793816978213 
763	 0.410058921463113 
764	 0.410343786111413 
765	 0.41068725757267 
766	 0.41090603637065 
767	 0.411156279135135 
768	 0.411511537929352 
769	 0.411687605156429 
770	 0.411996349006133 
771	 0.412365343607481 
772	 0.412629265010276 
773	 0.412915698604047 
774	 0.413187911822372 
775	 0.413435672604233 
776	 0.41367205318912 
777	 0.413843432337877 
778	 0.41409150927674 
779	 0.414442678352348 
780	 0.414685797833688 
781	 0.414999324103726 
782	 0.415303784755844 
783	 0.415516633628279 
784	 0.415804693481444 
785	 0.416069862471164 
786	 0.416284338934827 
787	 0.416473439737309 
788	 0.416708658848736 
789	 0.417004194145457 
790	 0.417318608767493 
791	 0.417557956029687 
792	 0.417684489668753 
793	 0.41788288134794 
794	 0.418226024440092 
795	 0.418401722786937 
796	 0.418626700223973 
797	 0.418885281538605 
798	 0.419111326508368 
799	 0.419425161366776 
800	 0.419705302205112 
801	 0.419950907120067 
802	 0.420246534512897 
803	 0.420449970304063 
804	 0.420707869062862 
805	 0.421056466843981 
806	 0.421316560914991 
807	 0.421457521252988 
808	 0.4216251695591 
809	 0.421897176085716 
810	 0.421997427523746 
811	 0.42219935230178 
812	 0.422466657663189 
813	 0.42266082081556 
814	 0.422924970801372 
815	 0.423198822386816 
816	 0.423459525323372 
817	 0.423716483784968 
818	 0.42382175560308 
819	 0.423929403558028 
820	 0.424130485344048 
821	 0.424334750668874 
822	 0.424670010993889 
823	 0.424906818738508 
824	 0.424916513891755 
825	 0.42517004100164 
826	 0.425356228783684 
827	 0.425552569899748 
828	 0.425923654792036 
829	 0.426058901606214 
830	 0.426225577798379 
831	 0.426458855816587 
832	 0.426575256102129 
833	 0.426713494362658 
834	 0.426940864236508 
835	 0.427161338499988 
836	 0.427057682919953 
837	 0.427427029126197 
838	 0.427852079877621 
839	 0.427902109335725 
840	 0.427989267501619 
841	 0.428152211672556 
842	 0.428390902783881 
843	 0.428650072955104 
844	 0.428789858366575 
845	 0.428833560840148 
846	 0.428933564134177 
847	 0.429269438565383 
848	 0.429484883756466 
849	 0.429694719836793 
850	 0.4299326111749 
851	 0.430067246635664 
852	 0.430157847691419 
853	 0.430279588056949 
854	 0.430468256401018 
855	 0.430675634693839 
856	 0.430818036599303 
857	 0.430960032142102 
858	 0.431165184136261 
859	 0.431307517427478 
860	 0.431428759502641 
861	 0.431588931427851 
862	 0.43180980082354 
863	 0.431838966275325 
864	 0.431970768960939 
865	 0.432225534320997 
866	 0.432377378403577 
867	 0.432553911997137 
868	 0.432747258070993 
869	 0.432910415808923 
870	 0.432974278938824 
871	 0.433099024772008 
872	 0.433248371175826 
873	 0.433370405714171 
874	 0.433484796400916 
875	 0.433533470037346 
876	 0.433596832652736 
877	 0.433762740538208 
878	 0.43398756839102 
879	 0.434231594495416 
880	 0.434322755858895 
881	 0.434168068934431 
882	 0.434391298474937 
883	 0.434562963836718 
884	 0.434600899142755 
885	 0.434712883637056 
886	 0.434750170194989 
887	 0.434894092486466 
888	 0.435151980504546 
889	 0.435304436480952 
890	 0.435387829586985 
891	 0.435498925391265 
892	 0.435674406513695 
893	 0.435828423039171 
894	 0.435863980986621 
895	 0.435924656833737 
896	 0.436118732846046 
897	 0.43631057721004 
898	 0.436389436676751 
899	 0.436450335921616 
900	 0.436612350409437 
901	 0.436763225738175 
902	 0.437057408754645 
903	 0.437211269246664 
904	 0.436929486098963 
905	 0.436997466256378 
906	 0.437303921294928 
907	 0.437701095541775 
908	 0.438015841840572 
909	 0.437841276745412 
910	 0.4377898422348 
911	 0.43801970435631 
912	 0.438152324874108 
913	 0.438397179599994 
914	 0.438690925704825 
915	 0.438871818410865 
916	 0.438736053764469 
917	 0.438876504259974 
918	 0.438925029054954 
919	 0.438761868222584 
920	 0.43906958203726 
921	 0.439486537691531 
922	 0.439735907286724 
923	 0.439725317003574 
924	 0.439747374930384 
925	 0.439873626048575 
926	 0.440102070467805 
927	 0.440339219614378 
928	 0.440315262370868 
929	 0.44044433087858 
930	 0.440719486654674 
931	 0.440924587098366 
932	 0.440830644308686 
933	 0.440720856882008 
934	 0.440814926267004 
935	 0.441176521032332 
936	 0.441415632460987 
937	 0.441414068359548 
938	 0.441393035357795 
939	 0.441699461395772 
940	 0.441964969160343 
941	 0.442112949309492 
942	 0.442289614926526 
943	 0.442714795142755 
944	 0.442743014974927 
945	 0.442723885426721 
946	 0.442814293981171 
947	 0.442859907290327 
948	 0.443053798907261 
949	 0.443231705888887 
950	 0.44334888920641 
951	 0.443555133931541 
952	 0.443613370437895 
953	 0.443562689676084 
954	 0.443646372491038 
955	 0.444261458466685 
956	 0.444464777200912 
957	 0.444550869286189 
958	 0.444734139068074 
959	 0.444642734081089 
960	 0.444839160325105 
961	 0.445276792684823 
962	 0.445568037467115 
963	 0.44500942692509 
964	 0.445031811272288 
965	 0.445304535025945 
966	 0.445352985786134 
967	 0.445489368398989 
968	 0.445799151329198 
969	 0.446168954957694 
970	 0.446399507198902 
971	 0.446238810052873 
972	 0.446361158205579 
973	 0.446816781023326 
974	 0.447285132264297 
975	 0.447052919589263 
976	 0.446951923962843 
977	 0.446981802633369 
978	 0.44702818302861 
979	 0.447543546876431 
980	 0.447637975952209 
981	 0.447795578739859 
982	 0.448445493430708 
983	 0.448284939007408 
984	 0.448110061036361 
985	 0.448486291074036 
986	 0.44935477001663 
987	 0.449020887258146 
988	 0.448658397760379 
989	 0.448690178353146 
990	 0.449097225403433 
991	 0.449472782096772 
992	 0.449307564467158 
993	 0.449484281422735 
994	 0.450509998046133 
995	 0.44983206472057 
996	 0.450040682043522 
997	 0.45032902247371 
998	 0.44960122966748 
999	 0.45005793734052 
1000	 0.450673905478975 
1001	 0.456829483322559 
1002	 0.456767927383808 
1003	 0.456942076681719 
1004	 0.457153451308989 
1005	 0.457406265446428 
1006	 0.457561208154634 
1007	 0.457756507426973 
1008	 0.457969327943601 
1009	 0.458048150456855 
1010	 0.45826059753261 
1011	 0.458712127721566 
1012	 0.458988588813474 
1013	 0.459179189031088 
1014	 0.459361925344241 
1015	 0.45954837391111 
1016	 0.459609416733701 
1017	 0.459693246008773 
1018	 0.459815901751077 
1019	 0.459860167774094 
1020	 0.460036393200838 
1021	 0.460148116002614 
1022	 0.460226349569963 
1023	 0.460293191638933 
1024	 0.460291003551705 
1025	 0.460423587929296 
1026	 0.460603038677951 
1027	 0.460821715270982 
1028	 0.46119373814271 
1029	 0.461531000564304 
1030	 0.461418674083065 
1031	 0.461374483609313 
1032	 0.461597790343522 
1033	 0.46158163609437 
1034	 0.461708437678278 
1035	 0.462043960059509 
1036	 0.462181331019559 
1037	 0.462026603398152 
1038	 0.46206703676667 
1039	 0.462279393979055 
1040	 0.462350881498171 
1041	 0.462338796158991 
1042	 0.462401062432145 
1043	 0.462455128407835 
1044	 0.462469268961764 
1045	 0.462666810138219 
1046	 0.462917530991171 
1047	 0.463128632008862 
1048	 0.46323825395161 
1049	 0.463204550453602 
1050	 0.463164232128912 
1051	 0.463251920430943 
1052	 0.463379613321257 
1053	 0.46353596763335 
1054	 0.463789177008111 
1055	 0.463991301684797 
1056	 0.464182392652933 
1057	 0.464366703161153 
1058	 0.464539472269352 
1059	 0.464747871730257 
1060	 0.464837349711167 
1061	 0.465072799908865 
1062	 0.465355683215998 
1063	 0.465340933656374 
1064	 0.465458218171092 
1065	 0.465803789163291 
1066	 0.466073923034228 
1067	 0.466466472575892 
1068	 0.466901496885367 
1069	 0.467062152660588 
1070	 0.467196171711875 
1071	 0.467204646369437 
1072	 0.467207630234098 
1073	 0.467292497034574 
1074	 0.467546353972399 
1075	 0.467724668544874 
1076	 0.468136427993668 
1077	 0.468614615524909 
1078	 0.468728281336591 
1079	 0.469044474064892 
1080	 0.469325187498961 
1081	 0.469378200305026 
1082	 0.469716247733884 
1083	 0.469874142068077 
1084	 0.469969481190664 
1085	 0.470298335237444 
1086	 0.470553221451415 
1087	 0.47075242175699 
1088	 0.47109060182306 
1089	 0.471412814820945 
1090	 0.471526550951113 
1091	 0.471625576852984 
1092	 0.47158180529991 
1093	 0.471569561259146 
1094	 0.4716764265139 
1095	 0.471845232790052 
1096	 0.472254623213456 
1097	 0.472591623606349 
1098	 0.472727069354138 
1099	 0.472832148519149 
1100	 0.472874027096675 
1101	 0.472838217146257 
1102	 0.472917708102801 
1103	 0.473043089382746 
1104	 0.473244195187576 
1105	 0.473326038966487 
1106	 0.47349889450258 
1107	 0.473662188982971 
1108	 0.473721922322803 
1109	 0.473792607636438 
1110	 0.473789843297891 
1111	 0.473833379720434 
1112	 0.474001388835252 
1113	 0.474204609146984 
1114	 0.474399667737838 
1115	 0.474488971202964 
1116	 0.474506328049661 
1117	 0.474542146168997 
1118	 0.474606856176849 
1119	 0.474795573759178 
1120	 0.474843420340063 
1121	 0.474861384858531 
1122	 0.474765370896306 
1123	 0.474648792281949 
1124	 0.474582233647803 
1125	 0.474668110807979 
1126	 0.474795251435617 
1127	 0.474885782389926 
1128	 0.47501221451357 
1129	 0.475074233651692 
1130	 0.475098001714286 
1131	 0.475257121077884 
1132	 0.475376987850843 
1133	 0.475409011177593 
1134	 0.475501741148029 
1135	 0.475522200221456 
1136	 0.475436791592785 
1137	 0.475393679582079 
1138	 0.475323740429298 
1139	 0.475329806782203 
1140	 0.475394524082492 
1141	 0.475391426955439 
1142	 0.475424668886875 
1143	 0.475442415083202 
1144	 0.475432219972646 
1145	 0.475478961988831 
1146	 0.475460199456104 
1147	 0.475510971910329 
1148	 0.475532772225898 
1149	 0.475454989747756 
1150	 0.475516762232325 
1151	 0.475542240898501 
1152	 0.475542720909843 
1153	 0.475501939343418 
1154	 0.47552967600753 
1155	 0.475604042027665 
1156	 0.475578330193866 
1157	 0.475497897015269 
1158	 0.475496236504427 
1159	 0.475456982225385 
1160	 0.475458375739021 
1161	 0.475573599326707 
1162	 0.47562238339963 
1163	 0.475678384208458 
1164	 0.475748613141943 
1165	 0.475789000193019 
1166	 0.475847309784101 
1167	 0.475830640263615 
1168	 0.475802644842824 
1169	 0.475797419503579 
1170	 0.475776639999823 
1171	 0.475804116978624 
1172	 0.475884215084381 
1173	 0.475916954103527 
1174	 0.475971917350633 
1175	 0.475994499783327 
1176	 0.475972550978828 
1177	 0.475961142320914 
1178	 0.475952137377884 
1179	 0.475938637383085 
1180	 0.475882884083569 
1181	 0.475763702505369 
1182	 0.475721068676974 
1183	 0.475727639292516 
1184	 0.475772466186511 
1185	 0.475960511866662 
1186	 0.476039958202809 
1187	 0.47608797476338 
1188	 0.476138232983892 
1189	 0.476168753366809 
1190	 0.476184975584647 
1191	 0.476199901561362 
1192	 0.476212238026363 
1193	 0.476161580851536 
1194	 0.476196222179214 
1195	 0.476282841845167 
1196	 0.476357480455489 
1197	 0.476460003233549 
1198	 0.476595482413028 
1199	 0.4766716898512 
1200	 0.47675170676597 
1201	 0.476859870464195 
1202	 0.476932603466135 
1203	 0.477048802395993 
1204	 0.477257257741658 
1205	 0.477377504297502 
1206	 0.477454306704586 
1207	 0.47762434312451 
1208	 0.477770140802128 
1209	 0.477972765282275 
1210	 0.478314932917169 
1211	 0.47856199826311 
1212	 0.478768171117564 
1213	 0.478996363338658 
1214	 0.479181138003708 
1215	 0.479442120743041 
1216	 0.479706662264449 
1217	 0.48003348154613 
1218	 0.480452159769175 
1219	 0.48085955782418 
1220	 0.481296607707278 
1221	 0.481780589480482 
1222	 0.482099175135055 
1223	 0.482364002986757 
1224	 0.482721112394999 
1225	 0.483044702682279 
1226	 0.483400384061842 
1227	 0.483858559579967 
1228	 0.48426095741646 
1229	 0.484636523176185 
1230	 0.484972977293798 
1231	 0.485334743372758 
1232	 0.485626660816874 
1233	 0.485796966619977 
1234	 0.486034036116279 
1235	 0.486300394170652 
1236	 0.486521639775974 
1237	 0.486722281210335 
1238	 0.486955360941381 
1239	 0.48717072202655 
1240	 0.487368511411731 
1241	 0.487762984615165 
1242	 0.487982669299902 
1243	 0.488246816028873 
1244	 0.488525074890656 
1245	 0.488793237273013 
1246	 0.489007823411009 
1247	 0.489308659782277 
1248	 0.489678618248238 
1249	 0.489966260689652 
1250	 0.490300156293853 
1251	 0.490512638495865 
1252	 0.490592448369233 
1253	 0.490752384788819 
1254	 0.49085845317163 
1255	 0.491029264659579 
1256	 0.491256569204811 
1257	 0.49148498803967 
1258	 0.491765345158389 
1259	 0.491999301843133 
1260	 0.49224633019626 
1261	 0.492463417345188 
1262	 0.49266686103355 
1263	 0.492799535540371 
1264	 0.492936103861998 
1265	 0.493043620864472 
1266	 0.49316710315543 
1267	 0.493255445214313 
1268	 0.493401102311409 
1269	 0.493586079926115 
1270	 0.493746687963644 
1271	 0.493917189372366 
1272	 0.494091006268864 
1273	 0.494268566661795 
1274	 0.494428488856873 
1275	 0.494562120250751 
1276	 0.494748264539168 
1277	 0.494962726746311 
1278	 0.495148634446324 
1279	 0.495375093545229 
1280	 0.495567665686481 
1281	 0.495697001143141 
1282	 0.49585441275991 
1283	 0.495992570367627 
1284	 0.496182691922085 
1285	 0.496399642293945 
1286	 0.496641734376505 
1287	 0.496873131041377 
1288	 0.497152589505339 
1289	 0.497384605094522 
1290	 0.497561629746316 
1291	 0.497814970103594 
1292	 0.49806804762936 
1293	 0.498387468650803 
1294	 0.498815975514083 
1295	 0.499140333761958 
1296	 0.499488200230837 
1297	 0.499760499509945 
1298	 0.499915075070351 
1299	 0.500137657881754 
1300	 0.500378601295946 
1301	 0.500587364693448 
1302	 0.500791029446586 
1303	 0.500998511978818 
1304	 0.50119201417289 
1305	 0.501368979259503 
1306	 0.501533601542059 
1307	 0.50171791287327 
1308	 0.501891167641615 
1309	 0.50206549288422 
1310	 0.502239163656452 
1311	 0.502434304600022 
1312	 0.50262126414979 
1313	 0.502802044081201 
1314	 0.502959904334118 
1315	 0.503094861338301 
1316	 0.503291408000841 
1317	 0.50351742260025 
1318	 0.503678491172808 
1319	 0.503867034046772 
1320	 0.504021566050474 
1321	 0.504123488212192 
1322	 0.504194177990838 
1323	 0.504229714595541 
1324	 0.504311489109411 
1325	 0.504345282464494 
1326	 0.504417785883006 
1327	 0.504646825089546 
1328	 0.504708470330357 
1329	 0.504615409208516 
1330	 0.504615558842852 
1331	 0.504531251497535 
1332	 0.504544457932297 
1333	 0.504680334941253 
1334	 0.504823335075781 
1335	 0.50491248177188 
1336	 0.505019079014112 
1337	 0.505061347770623 
1338	 0.505056180690996 
1339	 0.505045352499392 
1340	 0.505000937745142 
1341	 0.504974440718244 
1342	 0.504949479125408 
1343	 0.504886263100629 
1344	 0.504792482215449 
1345	 0.50474026633116 
1346	 0.504687500420128 
1347	 0.50461700943006 
1348	 0.504581390037613 
1349	 0.504505675169062 
1350	 0.504356057558302 
1351	 0.504267198346343 
1352	 0.504212978873475 
1353	 0.504146824912177 
1354	 0.504101229462133 
1355	 0.504035697126538 
1356	 0.503943345406067 
1357	 0.503871705115065 
1358	 0.503823923780478 
1359	 0.503748597770711 
1360	 0.503689242340641 
1361	 0.503594975205974 
1362	 0.503426397880252 
1363	 0.503264628172227 
1364	 0.503142028833636 
1365	 0.503021122853824 
1366	 0.502899571352142 
1367	 0.502834852483273 
1368	 0.502683583453451 
1369	 0.502471717478173 
1370	 0.502289735398244 
1371	 0.502070699120391 
1372	 0.501911502522088 
1373	 0.501819818376666 
1374	 0.501635425510079 
1375	 0.501443869180054 
1376	 0.501225495621452 
1377	 0.500887189812439 
1378	 0.500670945020731 
1379	 0.500546399504635 
1380	 0.50034534017917 
1381	 0.500166088885539 
1382	 0.499959933274686 
1383	 0.499655334319338 
1384	 0.499425390684279 
1385	 0.499264066277475 
1386	 0.499062251688429 
1387	 0.498855355277622 
1388	 0.498668235693186 
1389	 0.498409321150034 
1390	 0.49824463736535 
1391	 0.49816060903962 
1392	 0.498100792796752 
1393	 0.498007580667533 
1394	 0.497951530092774 
1395	 0.497842914560516 
1396	 0.497655126407255 
1397	 0.497568752796917 
1398	 0.49754540363397 
1399	 0.497444689579376 
1400	 0.49738586435786 
1401	 0.49720808298136 
1402	 0.496924301167823 
1403	 0.496673743503628 
1404	 0.496398673570852 
1405	 0.496101885161759 
1406	 0.495778483258424 
1407	 0.495472983097708 
1408	 0.49515110887737 
1409	 0.494812825236456 
1410	 0.494497494847122 
1411	 0.494146444262208 
1412	 0.493691310390806 
1413	 0.493368339325127 
1414	 0.493117536156369 
1415	 0.49283975687434 
1416	 0.492613240286236 
1417	 0.492381684018276 
1418	 0.492091571788587 
1419	 0.4918747539484 
1420	 0.491747781359039 
1421	 0.491593326046227 
1422	 0.491430977504516 
1423	 0.49130344451024 
1424	 0.491201629858657 
1425	 0.49108158014934 
1426	 0.490977445890248 
1427	 0.490925572183929 
1428	 0.490806156309959 
1429	 0.49067307520704 
1430	 0.490560689705385 
1431	 0.490440824312962 
1432	 0.490335071834895 
1433	 0.490248127457507 
1434	 0.490151554088384 
1435	 0.490064710570883 
1436	 0.489954388201761 
1437	 0.489818811556661 
1438	 0.48972136161382 
1439	 0.489621202823393 
1440	 0.489534517893376 
1441	 0.489467358917072 
1442	 0.489428600450797 
1443	 0.489410172992938 
1444	 0.489376368858916 
1445	 0.489320702990667 
1446	 0.489361907405058 
1447	 0.489415929425543 
1448	 0.489525582134558 
1449	 0.489734656026972 
1450	 0.489956431270425 
1451	 0.49019457638318 
1452	 0.490461458885612 
1453	 0.490779177696186 
1454	 0.491119426997774 
1455	 0.491493617692068 
1456	 0.491857383681476 
1457	 0.492274421488617 
1458	 0.492647938374796 
1459	 0.492995793598142 
1460	 0.493334715185751 
1461	 0.493670728774125 
1462	 0.493975414908786 
1463	 0.49421248379142 
1464	 0.494497323137775 
1465	 0.494766545089738 
1466	 0.495085071889153 
1467	 0.495413102910923 
1468	 0.495772602085482 
1469	 0.496140698925198 
1470	 0.496428945846757 
1471	 0.496718586065024 
1472	 0.496978522260938 
1473	 0.497278566838239 
1474	 0.497581823511633 
1475	 0.497858431183137 
1476	 0.498148850441372 
1477	 0.498436180285588 
1478	 0.498692131919473 
1479	 0.498938322784186 
1480	 0.499230241021355 
1481	 0.499437918967481 
1482	 0.499537255744831 
1483	 0.499746462997529 
1484	 0.499979106502553 
1485	 0.500197833109202 
1486	 0.500466549604644 
1487	 0.500700620373397 
1488	 0.500899250191212 
1489	 0.501108510621486 
1490	 0.501334531606979 
1491	 0.501540273216189 
1492	 0.50169783176066 
1493	 0.501921586450868 
1494	 0.502177129087396 
1495	 0.502424658421529 
1496	 0.502674757068492 
1497	 0.502975141012617 
1498	 0.503306320470962 
1499	 0.503630118167073 
1500	 0.504017435016629 
1501	 0.504363325406003 
1502	 0.504683969408586 
1503	 0.504984116510004 
1504	 0.505289071538011 
1505	 0.505552934275256 
1506	 0.505736798566508 
1507	 0.505975785794813 
1508	 0.506226845104281 
1509	 0.506470160430605 
1510	 0.506741515430063 
1511	 0.507002432469036 
1512	 0.507272180007221 
1513	 0.507493977214633 
1514	 0.507696757819208 
1515	 0.507884875438757 
1516	 0.508000983762819 
1517	 0.508153634184017 
1518	 0.508349400521805 
1519	 0.508506300257014 
1520	 0.50863718659197 
1521	 0.508787602441237 
1522	 0.508930184997732 
1523	 0.509019063621404 
1524	 0.509145403947195 
1525	 0.509279891510389 
1526	 0.509434525063005 
1527	 0.509612939423131 
1528	 0.509735432504264 
1529	 0.509871496128756 
1530	 0.509946551301166 
1531	 0.509931441989126 
1532	 0.510017640151942 
1533	 0.510139265255517 
1534	 0.510207524203837 
1535	 0.51028767501761 
1536	 0.510367890495334 
1537	 0.510393198930308 
1538	 0.510483732210426 
1539	 0.510630318366725 
1540	 0.510758119916774 
1541	 0.510882102677362 
1542	 0.511024228717698 
1543	 0.511180989017354 
1544	 0.511346972926312 
1545	 0.511535957560698 
1546	 0.511698731715222 
1547	 0.511857091687242 
1548	 0.512024253954525 
1549	 0.512182783841455 
1550	 0.51234034951509 
1551	 0.512513216960958 
1552	 0.512671290695743 
1553	 0.512786822695661 
1554	 0.512965801665551 
1555	 0.51317213078878 
1556	 0.5133883411949 
1557	 0.51365823881598 
1558	 0.513884624901129 
1559	 0.514109999684151 
1560	 0.514308127256431 
1561	 0.514490813152441 
1562	 0.514647341951755 
1563	 0.514765977786703 
1564	 0.514899000011662 
1565	 0.515004456707841 
1566	 0.515138860978047 
1567	 0.515279752955652 
1568	 0.515445219630037 
1569	 0.515654734735411 
1570	 0.51582077803521 
1571	 0.516000905988076 
1572	 0.516142098108141 
1573	 0.516211618665877 
1574	 0.516336757519326 
1575	 0.516488380610217 
1576	 0.516613781158009 
1577	 0.516759602989475 
1578	 0.516877462964953 
1579	 0.516899921230542 
1580	 0.517044123518734 
1581	 0.517261386115687 
1582	 0.517456302363975 
1583	 0.517725057486971 
1584	 0.51795283122025 
1585	 0.518150766336085 
1586	 0.518338523906824 
1587	 0.518540101687029 
1588	 0.518702247682024 
1589	 0.518803276617293 
1590	 0.518936079744691 
1591	 0.519089029122902 
1592	 0.519200883260493 
1593	 0.519328611863909 
1594	 0.51939420272883 
1595	 0.519317267977808 
1596	 0.519383826782225 
1597	 0.519498719987867 
1598	 0.519621163535367 
1599	 0.519846320201538 
1600	 0.520030758087709 
1601	 0.520185749067595 
1602	 0.520348817369011 
1603	 0.520573725634914 
1604	 0.520705521487424 
1605	 0.520778136699755 
1606	 0.520837115304015 
1607	 0.520800875720428 
1608	 0.520827153564132 
1609	 0.520852039284745 
1610	 0.520922758528474 
1611	 0.521064563518685 
1612	 0.521167478184584 
1613	 0.521309961995674 
1614	 0.521393539496689 
1615	 0.521391310251984 
1616	 0.521447472281639 
1617	 0.521529551063593 
1618	 0.521574070965618 
1619	 0.52165377917122 
1620	 0.521679114571612 
1621	 0.52162209945938 
1622	 0.521599244358375 
1623	 0.521535295951272 
1624	 0.521536883187779 
1625	 0.521630238342586 
1626	 0.521640147316171 
1627	 0.521625898308051 
1628	 0.521636037891147 
1629	 0.521600049208381 
1630	 0.52158733668997 
1631	 0.52164552130388 
1632	 0.521656555321726 
1633	 0.521600502627874 
1634	 0.521584913567707 
1635	 0.521589509966215 
1636	 0.521582657896847 
1637	 0.521607256838101 
1638	 0.521604323378989 
1639	 0.521541872740568 
1640	 0.521541692714236 
1641	 0.521575920478339 
1642	 0.521586077363334 
1643	 0.521622875331546 
1644	 0.52164237094499 
1645	 0.521644459607785 
1646	 0.521648086378871 
1647	 0.521693844768536 
1648	 0.521658615901963 
1649	 0.52157260960477 
1650	 0.521451160833589 
1651	 0.521238399657369 
1652	 0.521077866376252 
1653	 0.520923816571895 
1654	 0.520767803323548 
1655	 0.520618016397517 
1656	 0.520475797105721 
1657	 0.520345856735463 
1658	 0.520186872194812 
1659	 0.520035531422674 
1660	 0.519873565060095 
1661	 0.519713495537208 
1662	 0.519482947427484 
1663	 0.519193243927987 
1664	 0.518932673108252 
1665	 0.518663881180528 
1666	 0.518326398209778 
1667	 0.5180035945879 
1668	 0.517615680962551 
1669	 0.517112514273181 
1670	 0.516637571274409 
1671	 0.516138733738419 
1672	 0.515660432062469 
1673	 0.515223010470061 
1674	 0.514674163382173 
1675	 0.514134898704071 
1676	 0.513497333437286 
1677	 0.512692381951839 
1678	 0.511972265544782 
1679	 0.51127048378589 
1680	 0.510483360223565 
1681	 0.509698152800915 
1682	 0.508841238041445 
1683	 0.507912385100265 
1684	 0.506950505389729 
1685	 0.505919171637505 
1686	 0.504898484812613 
1687	 0.503834380839166 
1688	 0.502750194433402 
1689	 0.501686221944406 
1690	 0.500559951269651 
1691	 0.499384534126276 
1692	 0.498195890408489 
1693	 0.497001282474493 
1694	 0.495719080808148 
1695	 0.494318918311021 
1696	 0.493012147997849 
1697	 0.491706387915354 
1698	 0.49036315513765 
1699	 0.489085033541092 
1700	 0.487742759992576 
1701	 0.486288288303269 
1702	 0.484951203189078 
1703	 0.483608441033618 
1704	 0.482359089943675 
1705	 0.481184065597672 
1706	 0.479968106520679 
1707	 0.478924850248262 
1708	 0.477980339534305 
1709	 0.477074684881345 
1710	 0.476296864257525 
1711	 0.475662864768892 
1712	 0.475129165091392 
1713	 0.474613497270292 
1714	 0.474151692571221 
1715	 0.473653804986695 
1716	 0.473097127034791 
1717	 0.472578942254794 
1718	 0.47200898775034 
1719	 0.471488206007866 
1720	 0.471065398085779 
1721	 0.4705661775159 
1722	 0.470160911911183 
1723	 0.4699208057713 
1724	 0.469617034405737 
1725	 0.469390598779071 
1726	 0.469327599326901 
1727	 0.46927979829071 
1728	 0.469350834354735 
1729	 0.469691859776735 
1730	 0.470105655322398 
1731	 0.470515313608451 
1732	 0.471146545587111 
1733	 0.471774437130817 
1734	 0.472442225089461 
1735	 0.473261362027915 
1736	 0.473906380227967 
1737	 0.474460349496429 
1738	 0.474995448263159 
1739	 0.475425405467834 
1740	 0.475892724243087 
1741	 0.476154557727959 
1742	 0.476168921459858 
1743	 0.476220720575362 
1744	 0.476145343107211 
1745	 0.476093154430849 
1746	 0.476072130576737 
1747	 0.476003436545429 
1748	 0.475898138263458 
1749	 0.475772256013718 
1750	 0.475568075225043 
1751	 0.475499460959709 
1752	 0.475421521805881 
1753	 0.475461507420306 
1754	 0.475614528773713 
1755	 0.475784239380778 
1756	 0.476015517221629 
1757	 0.476217329614523 
1758	 0.476545313812927 
1759	 0.476979011967342 
1760	 0.477584043384182 
1761	 0.478321904100878 
1762	 0.479031630910382 
1763	 0.479728191208427 
1764	 0.480461608443851 
1765	 0.481252378531912 
1766	 0.482144851736943 
1767	 0.483017027440612 
1768	 0.483878087791094 
1769	 0.484750687362393 
1770	 0.485546188332426 
1771	 0.486423999308687 
1772	 0.487240223567691 
1773	 0.487978773429843 
1774	 0.488814608415475 
1775	 0.489545534233802 
1776	 0.490221011623654 
1777	 0.490844770778973 
1778	 0.491398425709448 
1779	 0.491999665766767 
1780	 0.492597262838168 
1781	 0.493140408122971 
1782	 0.493576951376713 
1783	 0.493964538903568 
1784	 0.494256041847547 
1785	 0.494532721119967 
1786	 0.49480632698905 
1787	 0.494986547547648 
1788	 0.495201116490987 
1789	 0.495428712371712 
1790	 0.495649927639615 
1791	 0.495829662725262 
1792	 0.496032644062698 
1793	 0.496278925627469 
1794	 0.496469774835727 
1795	 0.496652479444679 
1796	 0.496784142810251 
1797	 0.496943997301679 
1798	 0.497091539527947 
1799	 0.497370097721112 
1800	 0.497664366190083 
1801	 0.497941582075433 
1802	 0.498058046105358 
1803	 0.498216256591327 
1804	 0.498373153576805 
1805	 0.498590308387325 
1806	 0.49876731352691 
1807	 0.498951795961582 
1808	 0.499147013211089 
1809	 0.499359727705629 
1810	 0.499519163431676 
1811	 0.499651570087273 
1812	 0.499804143763395 
1813	 0.49988904097621 
1814	 0.500024320852543 
1815	 0.500267314549285 
1816	 0.500625301550682 
1817	 0.500914399339791 
1818	 0.501284686911322 
1819	 0.501553044275087 
1820	 0.501719176955155 
1821	 0.501937395460057 
1822	 0.502158497314175 
1823	 0.502378940329015 
1824	 0.50255250954395 
1825	 0.502814795942833 
1826	 0.503049264721184 
1827	 0.503255989834337 
1828	 0.503494040755388 
1829	 0.503794418723378 
1830	 0.504013701279598 
1831	 0.50418225177928 
1832	 0.504388295848895 
1833	 0.504578595597505 
1834	 0.504797408338505 
1835	 0.505093195071063 
1836	 0.505336861483178 
1837	 0.505614222134608 
1838	 0.505934547432505 
1839	 0.506209628751499 
1840	 0.506461836706801 
1841	 0.506761115531999 
1842	 0.507117365832227 
1843	 0.507341196277219 
1844	 0.507577032234346 
1845	 0.507817345422586 
1846	 0.507883136946837 
1847	 0.507949424469137 
1848	 0.508084130887841 
1849	 0.508217535547671 
1850	 0.508371323330048 
1851	 0.508603008056673 
1852	 0.508794869196442 
1853	 0.5088625567156 
1854	 0.508920728543015 
1855	 0.508987400336167 
1856	 0.509025828394179 
1857	 0.509058873087503 
1858	 0.509180724826059 
1859	 0.509212614063389 
1860	 0.509178225077432 
1861	 0.509108981090939 
1862	 0.509047134975979 
1863	 0.508863787137283 
1864	 0.508591219482229 
1865	 0.508456138305493 
1866	 0.508320255170424 
1867	 0.508162580374006 
1868	 0.508018713596327 
1869	 0.507739557969492 
1870	 0.507474578159112 
1871	 0.50716543848504 
1872	 0.50683641786355 
1873	 0.506497815004488 
1874	 0.506189483739353 
1875	 0.505717889483331 
1876	 0.505163577666019 
1877	 0.504584192511784 
1878	 0.503907845209798 
1879	 0.50317017881027 
1880	 0.502409637836125 
1881	 0.501593414748186 
1882	 0.500695657128072 
1883	 0.499770922073973 
1884	 0.498822121132159 
1885	 0.497835222827727 
1886	 0.496804221477756 
1887	 0.495568350463199 
1888	 0.494218029127525 
1889	 0.492885661066118 
1890	 0.491526105527937 
1891	 0.490269860531695 
1892	 0.489016063411145 
1893	 0.487664556250882 
1894	 0.48624670545996 
1895	 0.48480490028261 
1896	 0.483273146700342 
1897	 0.481830237668931 
1898	 0.480640292810919 
1899	 0.479477656137932 
1900	 0.478405090222414 
1901	 0.477366375702735 
1902	 0.476206839027184 
1903	 0.475106856368488 
1904	 0.474087707351552 
1905	 0.473090792106147 
1906	 0.472221069040241 
1907	 0.471460472010474 
1908	 0.470685604767428 
1909	 0.470009026020865 
1910	 0.469361103810783 
1911	 0.468681807821103 
1912	 0.468111107417102 
1913	 0.467537531982688 
1914	 0.466928521263032 
1915	 0.466385261801789 
1916	 0.465901258528197 
1917	 0.465414636735492 
1918	 0.464993618801432 
1919	 0.464616319012947 
1920	 0.464177326750426 
1921	 0.463818398450385 
1922	 0.46350911164224 
1923	 0.463168482969762 
1924	 0.462924803722137 
1925	 0.462667087641005 
1926	 0.462426160090028 
1927	 0.462161828596292 
1928	 0.461971000850907 
1929	 0.46182075802629 
1930	 0.461717288549231 
1931	 0.461626890221825 
1932	 0.461466667352986 
1933	 0.461343385328951 
1934	 0.461249136079991 
1935	 0.461117095170553 
1936	 0.461108072831559 
1937	 0.461161425259023 
1938	 0.461263065748644 
1939	 0.461399559810176 
1940	 0.461628694777602 
1941	 0.461879727968647 
1942	 0.462079577333347 
1943	 0.462325102200214 
1944	 0.462634333272284 
1945	 0.462928791629573 
1946	 0.463228205360155 
1947	 0.463559093121084 
1948	 0.463934456929095 
1949	 0.464293718299577 
1950	 0.464647987513581 
1951	 0.465023219083479 
1952	 0.465429821599249 
1953	 0.465790428608631 
1954	 0.466218267520571 
1955	 0.466864813442966 
1956	 0.467457814779097 
1957	 0.468038659192091 
1958	 0.468673419226836 
1959	 0.46921372973264 
1960	 0.469736428999672 
1961	 0.470229394884263 
1962	 0.47075612996129 
1963	 0.471176306160066 
1964	 0.471453099997687 
1965	 0.471802938194014 
1966	 0.472148542934675 
1967	 0.472502491567735 
1968	 0.472813129015271 
1969	 0.473209473537512 
1970	 0.47360990802715 
1971	 0.473964030780403 
1972	 0.474422427696018 
1973	 0.474890688100438 
1974	 0.475317924395494 
1975	 0.475747038434513 
1976	 0.476161971417044 
1977	 0.476540867803224 
1978	 0.476921605657622 
1979	 0.477289175893804 
1980	 0.477634678282969 
1981	 0.478071084815127 
1982	 0.478535768568733 
1983	 0.479007775956899 
1984	 0.479500474761491 
1985	 0.479921522852512 
1986	 0.480330528554052 
1987	 0.480813132052975 
1988	 0.481341035848994 
1989	 0.481871250497567 
1990	 0.482448592786794 
1991	 0.483038083292527 
1992	 0.483626947702693 
1993	 0.48427226123311 
1994	 0.484901076910122 
1995	 0.485483861879066 
1996	 0.48608736241504 
1997	 0.486636299909102 
1998	 0.487198766544139 
1999	 0.487768719933067 
2000	 0.488335845156528 
2001	 0.488920658087558 
2002	 0.489442030020979 
2003	 0.489953209333589 
2004	 0.490433313738997 
2005	 0.490829230972356 
2006	 0.49125251299614 
2007	 0.491708181386545 
2008	 0.492106601077968 
2009	 0.492449855767064 
2010	 0.492814359578158 
2011	 0.493150554389619 
2012	 0.493421048414084 
2013	 0.493690331890761 
2014	 0.49395419836245 
2015	 0.494183956602283 
2016	 0.494379908591544 
2017	 0.494570517834117 
2018	 0.494743900082846 
2019	 0.494902229349713 
2020	 0.495055047466794 
2021	 0.495162032088512 
2022	 0.495252565834406 
2023	 0.495291183383533 
2024	 0.495262314403914 
2025	 0.495203492139586 
2026	 0.495176386695964 
2027	 0.495141537677841 
2028	 0.495104403606907 
2029	 0.495090380631017 
2030	 0.495058891235973 
2031	 0.495016390493879 
2032	 0.494962198395618 
2033	 0.494916330586292 
2034	 0.494818029736437 
2035	 0.494673539522911 
2036	 0.494520747570108 
2037	 0.494342192297363 
2038	 0.494243355188629 
2039	 0.494168897929866 
2040	 0.494149294400447 
2041	 0.494105970048477 
2042	 0.494095697281414 
2043	 0.49405642530702 
2044	 0.494001470762013 
2045	 0.493952280600384 
2046	 0.493929971129304 
2047	 0.493851158051148 
2048	 0.49372169312476 
2049	 0.493624902798139 
2050	 0.493468497506136 
2051	 0.493381630233061 
2052	 0.493377327514874 
2053	 0.493366044096096 
2054	 0.493345325256418 
2055	 0.493340846346903 
2056	 0.493330140429615 
2057	 0.493333261742819 
2058	 0.493289774066251 
2059	 0.493224665494931 
2060	 0.493177495076808 
2061	 0.493068551687667 
2062	 0.493018074686995 
2063	 0.493021303622857 
2064	 0.493021814428252 
2065	 0.49304947678485 
2066	 0.493058717486651 
2067	 0.493059675638429 
2068	 0.49308588839633 
2069	 0.493093461428925 
2070	 0.493083094279285 
2071	 0.493078004466143 
2072	 0.493087325407795 
2073	 0.493076267684493 
2074	 0.493030616537198 
2075	 0.493033872150496 
2076	 0.493044277553873 
2077	 0.493051384101326 
2078	 0.493124852641289 
2079	 0.493134599587666 
2080	 0.493061188343649 
2081	 0.49306427086852 
2082	 0.493082733898806 
2083	 0.493100639895255 
2084	 0.493183038346932 
2085	 0.493216616161989 
2086	 0.493230655435122 
2087	 0.493190511413647 
2088	 0.493197609973171 
2089	 0.493202786614111 
2090	 0.493236751534414 
2091	 0.49336366176551 
2092	 0.493335001952259 
2093	 0.493205170326906 
2094	 0.49314372383816 
2095	 0.493025247166432 
2096	 0.492930957386386 
2097	 0.492941476091706 
2098	 0.492843033230637 
2099	 0.492702538605424 
2100	 0.492651324976983 
2101	 0.492565961173769 
2102	 0.492472305345909 
2103	 0.492441529652848 
2104	 0.492434945345081 
2105	 0.492409434143889 
2106	 0.492457420753079 
2107	 0.492441772116192 
2108	 0.49235878032995 
2109	 0.492306990194425 
2110	 0.49227527761313 
2111	 0.49221039530877 
2112	 0.492146565277686 
2113	 0.492053512169121 
2114	 0.491911079923579 
2115	 0.491775154800732 
2116	 0.491628889225826 
2117	 0.491509178343616 
2118	 0.491288564444411 
2119	 0.491005639325432 
2120	 0.49080629282068 
2121	 0.490533859331573 
2122	 0.490381546787823 
2123	 0.490391340398315 
2124	 0.490248857574124 
2125	 0.490089214502538 
2126	 0.489899927032616 
2127	 0.489566443329904 
2128	 0.489394485336176 
2129	 0.48931931510739 
2130	 0.48918099603629 
2131	 0.489106695323504 
2132	 0.48900287336246 
2133	 0.488837085067414 
2134	 0.488680716819817 
2135	 0.488597363329905 
2136	 0.488470762236649 
2137	 0.488287504167075 
2138	 0.488046509214248 
2139	 0.487851529616838 
2140	 0.487605521271492 
2141	 0.487438578809292 
2142	 0.487319775989625 
2143	 0.487216251430382 
2144	 0.487149161101233 
2145	 0.487070684227915 
2146	 0.487068924182552 
2147	 0.486973706916144 
2148	 0.486783293410385 
2149	 0.4866708221064 
2150	 0.486544120038814 
2151	 0.486424142142843 
2152	 0.48632404451869 
2153	 0.486279528490972 
2154	 0.486273014313838 
2155	 0.486299056093362 
2156	 0.486228793663345 
2157	 0.486230701265496 
2158	 0.486061866343217 
2159	 0.485685149855026 
2160	 0.485464111919432 
2161	 0.485264622723603 
2162	 0.485040530426583 
2163	 0.484857214859662 
2164	 0.484623783624147 
2165	 0.484285174318862 
2166	 0.484068772585939 
2167	 0.483930060047853 
2168	 0.483747004721162 
2169	 0.483638943003876 
2170	 0.483454809756992 
2171	 0.483208173669625 
2172	 0.482945580598379 
2173	 0.482635026538867 
2174	 0.482341865786031 
2175	 0.482065480089135 
2176	 0.481738014699865 
2177	 0.481444796455527 
2178	 0.481180772392485 
2179	 0.480895407527747 
2180	 0.480553169610451 
2181	 0.480340455515606 
2182	 0.480193700176484 
2183	 0.480027085575291 
2184	 0.479896892481646 
2185	 0.479829214261869 
2186	 0.479824109672901 
2187	 0.479741513369082 
2188	 0.479695323319775 
2189	 0.479631054847055 
2190	 0.479505053338028 
2191	 0.479357306696936 
2192	 0.479286845404639 
2193	 0.479098959797852 
2194	 0.478693013516044 
2195	 0.47844810641403 
2196	 0.478254724083303 
2197	 0.478061140964564 
2198	 0.477897153231259 
2199	 0.47773593240599 
2200	 0.477568602703672 
2201	 0.47733665930692 
2202	 0.477180281428786 
2203	 0.477097915289954 
2204	 0.476962107420211 
2205	 0.476836805975805 
2206	 0.47664800470176 
2207	 0.476397568766531 
2208	 0.476201481667441 
2209	 0.475995626708949 
2210	 0.475779099722016 
2211	 0.475555935535039 
2212	 0.47540610938306 
2213	 0.475302141708652 
2214	 0.475135531278198 
2215	 0.475001472481304 
2216	 0.474863610207863 
2217	 0.474698187127265 
2218	 0.474476306437464 
2219	 0.474256529748822 
2220	 0.474025197135437 
2221	 0.473725347570789 
2222	 0.473394389408794 
2223	 0.473124154303963 
2224	 0.472873078973997 
2225	 0.472606289177537 
2226	 0.472201411415657 
2227	 0.471792375106074 
2228	 0.47134447870555 
2229	 0.470892876275031 
2230	 0.470363350200248 
2231	 0.469905416649157 
2232	 0.469506384910344 
2233	 0.468977956773674 
2234	 0.468511938640136 
2235	 0.467822787175541 
2236	 0.466980159200264 
2237	 0.466072981248757 
2238	 0.464975665958704 
2239	 0.463904742159919 
2240	 0.462819167421874 
2241	 0.461615438386856 
2242	 0.460302948855818 
2243	 0.459015082511364 
2244	 0.457718693945773 
2245	 0.456283282564198 
2246	 0.454744027350414 
2247	 0.453227485928126 
2248	 0.451588573552069 
2249	 0.449960042886392 
2250	 0.448368575371243 
2251	 0.446829278085311 
2252	 0.445008712545701 
2253	 0.443228398753877 
2254	 0.441448977013909 
2255	 0.439518746743971 
2256	 0.43778846788668 
2257	 0.436102902556574 
2258	 0.434399425631415 
2259	 0.432740271700711 
2260	 0.431070968251442 
2261	 0.429346935485335 
2262	 0.427765981336524 
2263	 0.426252809295156 
2264	 0.424763498256713 
2265	 0.423346123604523 
2266	 0.421961905383355 
2267	 0.420688310129573 
2268	 0.419276883852036 
2269	 0.417860480161186 
2270	 0.416445859092061 
2271	 0.414864062703701 
2272	 0.413456154606009 
2273	 0.412200296415108 
2274	 0.410879772372679 
2275	 0.409602596903021 
2276	 0.408293981477416 
2277	 0.407030789525131 
2278	 0.405639490224432 
2279	 0.404133066889078 
2280	 0.402638240710087 
2281	 0.40093370199573 
2282	 0.399443302284099 
2283	 0.398100426365984 
2284	 0.396842617841616 
2285	 0.395348405944941 
2286	 0.393929096256164 
2287	 0.392153490038961 
2288	 0.390233862718729 
2289	 0.388630640808322 
2290	 0.386894270338923 
2291	 0.385236350010318 
2292	 0.383666045340731 
2293	 0.381774600602326 
2294	 0.379919408060753 
2295	 0.378310295039604 
2296	 0.376838881727274 
2297	 0.375675740334775 
2298	 0.37492964457156 
2299	 0.374159341555669 
2300	 0.373422465161821 
2301	 0.373135066354817 
2302	 0.373183510078334 
2303	 0.373257428512448 
2304	 0.373637197902067 
2305	 0.374129096869004 
2306	 0.374597352887832 
2307	 0.375475546802448 
2308	 0.376832553315019 
2309	 0.37801844663116 
2310	 0.379290913134765 
2311	 0.380706070521024 
2312	 0.382231899080678 
2313	 0.383739416392066 
2314	 0.385391906357857 
2315	 0.387054022754745 
2316	 0.388760782770772 
2317	 0.390338238494741 
2318	 0.392125681996697 
2319	 0.393490543219619 
2320	 0.394561787082722 
2321	 0.395444651856344 
2322	 0.396007395004892 
2323	 0.396553840804798 
2324	 0.396874330022084 
2325	 0.397193935659308 
2326	 0.397508848604284 
2327	 0.397698586144242 
2328	 0.397834850249696 
2329	 0.397836695974772 
2330	 0.397822983059315 
2331	 0.397388129433951 
2332	 0.39694973242449 
2333	 0.396501015396368 
2334	 0.395853961884852 
2335	 0.395300169009589 
2336	 0.394363970575343 
2337	 0.39303989212402 
2338	 0.391801868090493 
2339	 0.39039436404121 
2340	 0.389244647865235 
2341	 0.388268816966216 
2342	 0.387218171864824 
2343	 0.386388728805289 
2344	 0.385689966469619 
2345	 0.385435195745508 
2346	 0.385217465867878 
2347	 0.385078515103571 
2348	 0.385395343378394 
2349	 0.385543238239987 
2350	 0.386127373395741 
2351	 0.387459790192157 
2352	 0.388766823984965 
2353	 0.390238173223155 
2354	 0.391770680470699 
2355	 0.393016009378599 
2356	 0.393989639834358 
2357	 0.395080809886583 
2358	 0.396014547408773 
2359	 0.396419187379795 
2360	 0.397026546512526 
2361	 0.39737492556322 
2362	 0.397419218243311 
2363	 0.397762034099794 
2364	 0.397855389806227 
2365	 0.397974142631677 
2366	 0.398230323186719 
2367	 0.398252030212537 
2368	 0.398557309372657 
2369	 0.398684234953258 
2370	 0.39861270787023 
2371	 0.398795931442678 
2372	 0.398617281103237 
2373	 0.398344464691949 
2374	 0.398181554606107 
2375	 0.398084051950859 
2376	 0.397930637745031 
2377	 0.397739937367721 
2378	 0.397874950822344 
2379	 0.398000834619706 
2380	 0.398219161749015 
2381	 0.398539660479516 
2382	 0.398781244259419 
2383	 0.398864669708433 
2384	 0.399077437733734 
2385	 0.399499171147819 
2386	 0.399637416194984 
2387	 0.399583391257854 
2388	 0.399681795849263 
2389	 0.399663013694268 
2390	 0.399833067696786 
2391	 0.400210512085081 
2392	 0.400481607391389 
2393	 0.400792806765859 
2394	 0.400901284610996 
2395	 0.400946873501906 
2396	 0.401047186299911 
2397	 0.40098032951743 
2398	 0.401114280337715 
2399	 0.40133405803231 
2400	 0.401493803423892 
2401	 0.401744962496193 
2402	 0.401714452620184 
2403	 0.401997058622079 
2404	 0.402120555173099 
2405	 0.4019137283182 
2406	 0.401902374738507 
2407	 0.401902072764236 
2408	 0.402138639385328 
2409	 0.402791762082176 
2410	 0.403032659781419 
2411	 0.403145558809767 
2412	 0.403652666012118 
2413	 0.403812386616776 
2414	 0.404029435195445 
2415	 0.404355952284948 
2416	 0.404053450917982 
2417	 0.404209509988769 
2418	 0.404513041172825 
2419	 0.404319455990785 
2420	 0.404312114588743 
2421	 0.404285758303982 
2422	 0.404327308828403 
2423	 0.40448286027292 
2424	 0.404781481466771 
2425	 0.404896914691289 
2426	 0.404674909739491 
2427	 0.404622889644305 
2428	 0.404279684934406 
2429	 0.403810155894558 
2430	 0.403663418678266 
2431	 0.403560102599758 
2432	 0.403748825710053 
2433	 0.404004769226294 
2434	 0.403950387483702 
2435	 0.404307755162624 
2436	 0.405027916118217 
2437	 0.405541450730513 
2438	 0.405829246457594 
2439	 0.405531582689302 
2440	 0.404670888422963 
2441	 0.404158382371241 
2442	 0.403888950423585 
2443	 0.403695653617027 
2444	 0.403976166373431 
2445	 0.403799170725149 
2446	 0.403304208854318 
2447	 0.403378891901073 
2448	 0.403439413091996 
2449	 0.403182096514281 
2450	 0.403226679294034 
2451	 0.403506999813153 
2452	 0.403101247447529 
2453	 0.402201627989262 
2454	 0.401357775623174 
2455	 0.400213035320052 
2456	 0.399128194953941 
2457	 0.399170710720986 
2458	 0.39969912104856 
2459	 0.399731948164748 
2460	 0.399744058401093 
2461	 0.399506440421362 
2462	 0.399026032495159 
2463	 0.398863733666112 
2464	 0.398740409003746 
2465	 0.39881592676296 
2466	 0.398413883735544 
2467	 0.397870244835652 
2468	 0.397812153367429 
2469	 0.397124146466315 
2470	 0.397063936216274 
2471	 0.397343987735388 
2472	 0.397183516540509 
2473	 0.397656307748363 
2474	 0.397907981021383 
2475	 0.397736466747178 
2476	 0.397803440352702 
2477	 0.398571395803812 
2478	 0.399076336507004 
2479	 0.398932990717265 
2480	 0.398076815060605 
2481	 0.397720908082912 
2482	 0.398011469584339 
2483	 0.397825485425433 
2484	 0.398059069567951 
2485	 0.398007057037599 
2486	 0.398079667581426 
2487	 0.399362589347303 
2488	 0.399402794969063 
2489	 0.39942907343099 
2490	 0.399961850906803 
2491	 0.399438266977254 
2492	 0.399572878002359 
2493	 0.400565181813787 
2494	 0.401439011412727 
2495	 0.401620464415502 
2496	 0.402110972275659 
2497	 0.403233218556106 
2498	 0.402413441755622 
2499	 0.403033265838695 
2500	 0.405132747002779 
