Wavelength	Tablay400114.asd
350	 0.197533869832197 
351	 0.175662775959457 
352	 0.155152625691292 
353	 0.169457222996129 
354	 0.265822521757558 
355	 0.195139476269983 
356	 0.137144016004949 
357	 0.246313339038894 
358	 0.226501595308361 
359	 0.166176170464297 
360	 0.139104595662857 
361	 0.188514257652009 
362	 0.18086186066482 
363	 0.171885672286963 
364	 0.187961758697531 
365	 0.185788453378336 
366	 0.120382045173661 
367	 6.14763210068421E-02 
368	 7.15490943196446E-02 
369	 0.101080457466934 
370	 0.101820134734537 
371	 9.38533408871861E-02 
372	 0.126141644928675 
373	 0.111686486628051 
374	 0.116947946391844 
375	 0.158808739309337 
376	 0.163810763566629 
377	 0.140575225698681 
378	 0.117542300239077 
379	 0.111045115217222 
380	 8.54464706450579E-02 
381	 8.55158614129337E-02 
382	 9.42307474047361E-02 
383	 0.068954369535122 
384	 8.20158144877562E-02 
385	 9.96785274542823E-02 
386	 9.45673868991185E-02 
387	 7.40714866647343E-02 
388	 7.92299373567713E-02 
389	 9.50027102313605E-02 
390	 0.100049355379887 
391	 0.100761791733071 
392	 9.66592121159496E-02 
393	 9.62652155849154E-02 
394	 0.108427396740883 
395	 7.93527098447578E-02 
396	 6.79033097427385E-02 
397	 9.35850777418325E-02 
398	 9.71954475380761E-02 
399	 0.101587309742634 
400	 9.65048695556717E-02 
401	 7.67300761285866E-02 
402	 8.74232687782048E-02 
403	 9.77359735860187E-02 
404	 9.27624468369889E-02 
405	 7.56290053128063E-02 
406	 8.23177107715847E-02 
407	 8.93753088915187E-02 
408	 8.04183447055329E-02 
409	 6.47992859852656E-02 
410	 7.94819578865279E-02 
411	 9.95886712008604E-02 
412	 9.16539761509794E-02 
413	 8.16050875656855E-02 
414	 7.26084730253758E-02 
415	 6.97719849415993E-02 
416	 7.91548933879272E-02 
417	 8.22506795040307E-02 
418	 8.02759467552514E-02 
419	 7.86268103567457E-02 
420	 8.60439568728132E-02 
421	 7.68211368062033E-02 
422	 6.37597642184337E-02 
423	 6.88467888405937E-02 
424	 0.06722082358262 
425	 6.66360338569452E-02 
426	 0.069587175605089 
427	 7.03507290433842E-02 
428	 7.05271434296377E-02 
429	 6.73988977950898E-02 
430	 6.12371611119934E-02 
431	 6.28205713841963E-02 
432	 6.57705030070941E-02 
433	 6.73272505131063E-02 
434	 0.067086654283667 
435	 6.53134824623664E-02 
436	 6.47579729428092E-02 
437	 6.62654994155816E-02 
438	 6.77948794674542E-02 
439	 6.56932304723433E-02 
440	 6.52215112081003E-02 
441	 7.01942247847191E-02 
442	 6.81618702313397E-02 
443	 6.76980408305104E-02 
444	 6.83762273096918E-02 
445	 0.063352012068662 
446	 6.32177302387591E-02 
447	 6.43614335911831E-02 
448	 6.40797439046472E-02 
449	 6.67274142433267E-02 
450	 0.067273971734492 
451	 6.56827252929803E-02 
452	 6.41988042449236E-02 
453	 6.64702810576855E-02 
454	 0.067220233097908 
455	 6.51028540399477E-02 
456	 6.36168928486965E-02 
457	 0.063539676243368 
458	 6.31707174032323E-02 
459	 6.16930364831952E-02 
460	 6.25274483914734E-02 
461	 6.39844501414183E-02 
462	 6.49247854036652E-02 
463	 6.46214682572451E-02 
464	 6.30183830344136E-02 
465	 6.18815328938903E-02 
466	 6.24669079359971E-02 
467	 6.52128967938918E-02 
468	 6.48035769057995E-02 
469	 6.35621808878576E-02 
470	 6.43355316446287E-02 
471	 6.24660162226299E-02 
472	 6.07662995005687E-02 
473	 6.05622590260064E-02 
474	 0.061693733939466 
475	 6.23807118470939E-02 
476	 6.31919336366413E-02 
477	 0.064371499837171 
478	 0.06494384133367 
479	 0.062025960574223 
480	 0.059289585757062 
481	 6.12833109821909E-02 
482	 6.11874335207327E-02 
483	 0.062090715716521 
484	 6.40364389407951E-02 
485	 6.31056210412953E-02 
486	 6.28900596569783E-02 
487	 6.30329478713736E-02 
488	 6.27570021239068E-02 
489	 6.28881950099602E-02 
490	 0.061704547104955 
491	 6.05597582231092E-02 
492	 6.20058138499064E-02 
493	 6.23167561860267E-02 
494	 6.23985633613858E-02 
495	 0.062962883286588 
496	 6.35465655094214E-02 
497	 6.39537730150734E-02 
498	 6.39563414923628E-02 
499	 6.35415276678385E-02 
500	 6.34403846574723E-02 
501	 6.38159100949754E-02 
502	 6.42323893850902E-02 
503	 6.38743676991423E-02 
504	 6.43088092875318E-02 
505	 6.44919118119296E-02 
506	 6.39631823322374E-02 
507	 6.48338229867542E-02 
508	 6.46716902655797E-02 
509	 6.45917672037734E-02 
510	 6.64510263608794E-02 
511	 6.60721901580291E-02 
512	 6.51014824648176E-02 
513	 6.47601531797653E-02 
514	 6.50987436349845E-02 
515	 6.48549948614033E-02 
516	 6.53168331795669E-02 
517	 6.69906853075523E-02 
518	 6.52754368942151E-02 
519	 6.46993510102768E-02 
520	 6.56568200487969E-02 
521	 0.065760650059037 
522	 6.61571300515693E-02 
523	 6.65348241629446E-02 
524	 6.66094233064093E-02 
525	 6.64548208783877E-02 
526	 6.63688988943103E-02 
527	 6.64602512389687E-02 
528	 6.67285862794592E-02 
529	 6.71449739217686E-02 
530	 6.70543809305114E-02 
531	 6.66169357702222E-02 
532	 6.68340931831597E-02 
533	 6.73503349619071E-02 
534	 6.77121784948831E-02 
535	 6.77400546301285E-02 
536	 6.80930271454998E-02 
537	 6.84749218716467E-02 
538	 6.86620381261012E-02 
539	 6.85694792721891E-02 
540	 6.89971370155737E-02 
541	 6.91230158873386E-02 
542	 6.87685173600834E-02 
543	 6.90367396879728E-02 
544	 6.94692338582085E-02 
545	 0.069632376185188 
546	 6.93461317210727E-02 
547	 6.95354505605343E-02 
548	 0.069776926192839 
549	 6.99446956189725E-02 
550	 0.070206172391022 
551	 7.02909773966206E-02 
552	 7.03373739392487E-02 
553	 7.04802671382373E-02 
554	 7.06608137175728E-02 
555	 7.08507310263995E-02 
556	 7.09344406152353E-02 
557	 7.08202548736652E-02 
558	 7.08503888828831E-02 
559	 7.10745701251141E-02 
560	 7.14133361267452E-02 
561	 7.16651096163806E-02 
562	 7.15809276478054E-02 
563	 7.15004233577145E-02 
564	 7.17528892146911E-02 
565	 7.19995528416513E-02 
566	 7.21059499387045E-02 
567	 7.20085697745141E-02 
568	 7.17574412790677E-02 
569	 7.21102948119129E-02 
570	 7.24550596915997E-02 
571	 7.23961185903133E-02 
572	 7.24268843664899E-02 
573	 7.23890410448894E-02 
574	 7.24082777793073E-02 
575	 7.26388214432448E-02 
576	 7.28661870457581E-02 
577	 7.28055800238557E-02 
578	 7.25324666412094E-02 
579	 7.25184216218287E-02 
580	 7.28976328784331E-02 
581	 7.31604451138343E-02 
582	 7.29859661252225E-02 
583	 0.073113108216358 
584	 7.32328511910497E-02 
585	 7.33324131299638E-02 
586	 7.35368669182899E-02 
587	 0.073594231161397 
588	 7.36056077897614E-02 
589	 7.36259692680514E-02 
590	 7.35536267020691E-02 
591	 7.36593340043588E-02 
592	 7.38612073290232E-02 
593	 7.39900758220967E-02 
594	 7.40235214712199E-02 
595	 7.40809331779171E-02 
596	 7.41370906009538E-02 
597	 7.40569349718184E-02 
598	 0.074131544073871 
599	 7.41908072911522E-02 
600	 7.41326838847395E-02 
601	 7.42212274591438E-02 
602	 7.42806181528741E-02 
603	 7.43425266716248E-02 
604	 0.074475621721852 
605	 7.43764584518016E-02 
606	 7.42920366980056E-02 
607	 7.43901611079695E-02 
608	 0.074682027402327 
609	 7.47085922645897E-02 
610	 7.44663808815632E-02 
611	 7.41662582353347E-02 
612	 7.42575401502444E-02 
613	 7.45219994167325E-02 
614	 7.47364538300666E-02 
615	 7.47151615754227E-02 
616	 7.46427415415808E-02 
617	 0.074620350486691 
618	 7.46526914579847E-02 
619	 7.45886878036104E-02 
620	 7.46533676604556E-02 
621	 7.48071243386643E-02 
622	 7.49270600318929E-02 
623	 0.074980175678897 
624	 7.48819540571366E-02 
625	 7.47426898267474E-02 
626	 0.074825977216881 
627	 0.074786190762041 
628	 7.46595059148403E-02 
629	 7.45691655064937E-02 
630	 7.46782110100608E-02 
631	 7.47923572033388E-02 
632	 7.48405973213357E-02 
633	 7.48206471588299E-02 
634	 7.47721745944422E-02 
635	 7.48237567334214E-02 
636	 7.49468699991116E-02 
637	 7.49174467790563E-02 
638	 7.49042438006065E-02 
639	 7.48791518301794E-02 
640	 7.47985605727942E-02 
641	 0.074699393312565 
642	 7.47749032922124E-02 
643	 7.49038815294984E-02 
644	 7.48072679965181E-02 
645	 7.46965423156077E-02 
646	 7.46777654270449E-02 
647	 7.47691360303618E-02 
648	 7.48807966724938E-02 
649	 7.48174534928297E-02 
650	 7.46777355176857E-02 
651	 7.46386377464919E-02 
652	 0.074783111049629 
653	 7.47537872752105E-02 
654	 7.45823096356337E-02 
655	 7.46086306249843E-02 
656	 7.47400523714105E-02 
657	 7.48241241287363E-02 
658	 7.47850168500929E-02 
659	 7.47161045533679E-02 
660	 7.47132464714408E-02 
661	 7.47789837668318E-02 
662	 0.074840647965019 
663	 7.46466765599135E-02 
664	 7.46713592511186E-02 
665	 0.074921079240595 
666	 7.49070045556858E-02 
667	 7.47047074157833E-02 
668	 7.46415576765527E-02 
669	 7.48606802088896E-02 
670	 7.49290126971107E-02 
671	 7.48096494134919E-02 
672	 0.074628174011285 
673	 7.45681552644797E-02 
674	 7.45350957320965E-02 
675	 7.46052161263431E-02 
676	 7.47158835846778E-02 
677	 7.46335492244038E-02 
678	 7.45982383638296E-02 
679	 7.46618676932084E-02 
680	 7.47509579932533E-02 
681	 7.45254591508842E-02 
682	 7.45370640361546E-02 
683	 7.47493663369843E-02 
684	 0.074816163842242 
685	 7.47825878886034E-02 
686	 7.47533535961744E-02 
687	 7.47483699766885E-02 
688	 7.46537781921923E-02 
689	 7.47568915665473E-02 
690	 7.48752032964388E-02 
691	 7.48140227867837E-02 
692	 7.47845173380705E-02 
693	 7.47523603435937E-02 
694	 7.47442140305758E-02 
695	 7.48128460742195E-02 
696	 7.49028551947502E-02 
697	 7.49232532380489E-02 
698	 7.48551793350873E-02 
699	 7.47868608595801E-02 
700	 7.48698793275271E-02 
701	 7.50640862579484E-02 
702	 7.52208195655212E-02 
703	 7.50215300424286E-02 
704	 7.49395522460562E-02 
705	 7.50255531082729E-02 
706	 0.075042054249625 
707	 7.51482315900559E-02 
708	 7.51854963818486E-02 
709	 7.51204641099907E-02 
710	 7.51873829893873E-02 
711	 7.52696573936867E-02 
712	 7.53242347225628E-02 
713	 7.53442667869652E-02 
714	 7.53605995272132E-02 
715	 7.55817955843683E-02 
716	 7.58223831215196E-02 
717	 0.075683270029628 
718	 7.56634410506058E-02 
719	 7.58033548972006E-02 
720	 0.075988736652109 
721	 7.59559863864175E-02 
722	 7.59952305288751E-02 
723	 7.60827091075387E-02 
724	 7.61498243172352E-02 
725	 7.63590274134235E-02 
726	 0.076481841127525 
727	 7.65285318321595E-02 
728	 7.66664822370377E-02 
729	 0.076770129101 
730	 7.67896302244689E-02 
731	 7.67944028275904E-02 
732	 7.70324241600588E-02 
733	 7.72063930615379E-02 
734	 7.72769389628477E-02 
735	 7.73133404358348E-02 
736	 7.74787230363091E-02 
737	 0.077609058875024 
738	 7.77200368393387E-02 
739	 7.79274616733606E-02 
740	 7.80721847024843E-02 
741	 7.82081102850451E-02 
742	 7.83671668317844E-02 
743	 7.85100696294136E-02 
744	 7.86549472449616E-02 
745	 7.88085877328162E-02 
746	 7.89691432856593E-02 
747	 0.079116844036813 
748	 7.92466417299383E-02 
749	 7.94237608773361E-02 
750	 7.97152332026232E-02 
751	 7.98910755207457E-02 
752	 7.99854552844815E-02 
753	 8.00922461309808E-02 
754	 8.03365543746283E-02 
755	 8.05944263484788E-02 
756	 8.07839244801538E-02 
757	 8.09034951442053E-02 
758	 8.11445057932625E-02 
759	 8.13605977176893E-02 
760	 8.15157328723595E-02 
761	 8.16587778482337E-02 
762	 8.20164737839357E-02 
763	 8.23329099041379E-02 
764	 8.24835865458619E-02 
765	 8.25384015773022E-02 
766	 8.27723740156491E-02 
767	 8.30947086819013E-02 
768	 8.33771637200522E-02 
769	 8.35857173374967E-02 
770	 8.37944560686106E-02 
771	 8.40167265868216E-02 
772	 8.42450198658902E-02 
773	 8.44825659285432E-02 
774	 8.47975639165128E-02 
775	 8.51049775071101E-02 
776	 0.085226824988421 
777	 8.54099699548742E-02 
778	 8.57028888006519E-02 
779	 8.60490921674068E-02 
780	 8.62741838292209E-02 
781	 8.64931870894989E-02 
782	 8.67189704970047E-02 
783	 8.69547563267902E-02 
784	 8.72822532699797E-02 
785	 8.75106011321123E-02 
786	 8.76780493468208E-02 
787	 8.79388770334775E-02 
788	 8.82313053621077E-02 
789	 8.84666498415341E-02 
790	 8.86301549704127E-02 
791	 8.87992236504111E-02 
792	 8.90558553169482E-02 
793	 8.93503761068257E-02 
794	 8.96195499289621E-02 
795	 0.08984119283008 
796	 0.090071385502923 
797	 9.02865192075556E-02 
798	 9.04523005781306E-02 
799	 9.06360560652561E-02 
800	 9.08155127068045E-02 
801	 9.10207694646844E-02 
802	 9.13057920174665E-02 
803	 9.15411703693637E-02 
804	 9.16624097640075E-02 
805	 9.17450749455253E-02 
806	 9.20462239884773E-02 
807	 9.22316313263848E-02 
808	 9.23970603543035E-02 
809	 9.26396578343758E-02 
810	 9.27245918491442E-02 
811	 9.28210364935227E-02 
812	 9.30308025726645E-02 
813	 9.33539186747944E-02 
814	 9.34376787470136E-02 
815	 9.35243603077904E-02 
816	 9.36898932405499E-02 
817	 9.38337725385466E-02 
818	 9.40087497033088E-02 
819	 9.41455702888339E-02 
820	 9.42396756271841E-02 
821	 0.094416131730322 
822	 9.45762156475939E-02 
823	 0.094692552047821 
824	 9.47829514789828E-02 
825	 9.49426201749937E-02 
826	 9.50754812469111E-02 
827	 0.095183191280137 
828	 9.52966829260702E-02 
829	 9.53183925294395E-02 
830	 9.54512692449847E-02 
831	 9.56594722354975E-02 
832	 9.57044518045074E-02 
833	 9.56665830477553E-02 
834	 9.57491124028333E-02 
835	 0.095973448962295 
836	 9.60635615332395E-02 
837	 9.61256527335289E-02 
838	 9.61823560201974E-02 
839	 9.62357875941989E-02 
840	 9.62789280860584E-02 
841	 9.62981335103845E-02 
842	 9.63239954646589E-02 
843	 9.63967494311564E-02 
844	 9.65208491139255E-02 
845	 9.65409490759668E-02 
846	 9.65204639388999E-02 
847	 9.66539502433737E-02 
848	 9.67720674747025E-02 
849	 9.67294680097825E-02 
850	 9.66142031302456E-02 
851	 9.67686024313332E-02 
852	 0.096782709445864 
853	 9.68109996035877E-02 
854	 0.096953899540295 
855	 9.69528221665033E-02 
856	 9.69604033619639E-02 
857	 9.69422437621429E-02 
858	 9.68782542424739E-02 
859	 9.70144204394918E-02 
860	 0.097025616591253 
861	 9.69892560271162E-02 
862	 9.71089080946457E-02 
863	 9.69559170318692E-02 
864	 9.70206888830895E-02 
865	 9.72504938419276E-02 
866	 9.71410789736036E-02 
867	 9.70882614519105E-02 
868	 9.71471114365631E-02 
869	 9.72559872434327E-02 
870	 9.72663173146921E-02 
871	 9.72889713039756E-02 
872	 9.72394551002105E-02 
873	 9.71062618376543E-02 
874	 9.71136590242478E-02 
875	 9.72503921254204E-02 
876	 0.097370455107079 
877	 9.73417008309323E-02 
878	 9.72234866231749E-02 
879	 9.73604874461529E-02 
880	 9.75385126172731E-02 
881	 9.74096844885936E-02 
882	 9.75375096627244E-02 
883	 9.74949295657605E-02 
884	 9.73550316156606E-02 
885	 0.097528727072607 
886	 9.75456141931555E-02 
887	 9.76018687099487E-02 
888	 9.76816186635664E-02 
889	 0.097497302219784 
890	 9.78071088025279E-02 
891	 9.79665717019895E-02 
892	 9.77004790875259E-02 
893	 9.77734810265335E-02 
894	 9.78045577383951E-02 
895	 9.78197558756946E-02 
896	 9.78903397393495E-02 
897	 9.79567132837196E-02 
898	 9.80481092610014E-02 
899	 9.81355380455578E-02 
900	 0.098202232215574 
901	 9.83489066117215E-02 
902	 9.85086988416069E-02 
903	 9.85547617371004E-02 
904	 9.84318994732063E-02 
905	 9.85765151829332E-02 
906	 9.87048388308651E-02 
907	 0.098709308748307 
908	 9.86626393971142E-02 
909	 9.86983503462788E-02 
910	 9.88707165632816E-02 
911	 9.90653918331402E-02 
912	 0.099063070423448 
913	 9.92708619682587E-02 
914	 9.95155573045942E-02 
915	 9.95839042170952E-02 
916	 9.93678581914707E-02 
917	 9.94479059000099E-02 
918	 9.96113400102635E-02 
919	 9.96545873326979E-02 
920	 0.099714075908312 
921	 9.97064609027376E-02 
922	 9.97693909342419E-02 
923	 9.99731699647092E-02 
924	 0.100077427106397 
925	 0.100313886235404 
926	 0.100638690875996 
927	 0.100884522459466 
928	 0.100774329070201 
929	 0.100881176166689 
930	 0.10111447658787 
931	 0.101169176509588 
932	 0.101166046084224 
933	 0.101253134742261 
934	 0.101415400613007 
935	 0.101548758289244 
936	 0.101622643693575 
937	 0.10179372435764 
938	 0.101987368310533 
939	 0.102030324258684 
940	 0.102262047559936 
941	 0.102580961750623 
942	 0.102781417113433 
943	 0.102687207493484 
944	 0.102770455875953 
945	 0.102940924621551 
946	 0.103165402147331 
947	 0.103497527189857 
948	 0.10345290486002 
949	 0.103440584036496 
950	 0.103673698752023 
951	 0.103931803890744 
952	 0.103926662917114 
953	 0.103909389475074 
954	 0.104034531933562 
955	 0.104165613808357 
956	 0.104599722765819 
957	 0.10472057276884 
958	 0.104418762617446 
959	 0.104710907990859 
960	 0.104888905666217 
961	 0.105190209758951 
962	 0.105627888312448 
963	 0.10539187992827 
964	 0.105376021225103 
965	 0.105584776950721 
966	 0.105803502250426 
967	 0.105890886407804 
968	 0.106114875613845 
969	 0.106267042844892 
970	 0.106194726659266 
971	 0.106215419878549 
972	 0.106348427856109 
973	 0.106558615404329 
974	 0.106783940211839 
975	 0.106983095603803 
976	 0.107059152680441 
977	 0.107124809291716 
978	 0.107297492858095 
979	 0.107520252557184 
980	 0.107342625839143 
981	 0.107226508030757 
982	 0.107674674087364 
983	 0.108359220961312 
984	 0.10814284490738 
985	 0.107798245906524 
986	 0.108246060997912 
987	 0.108449211652999 
988	 0.108529371353844 
989	 0.108661514120031 
990	 0.108867172156956 
991	 0.108495538107172 
992	 0.108594885169405 
993	 0.108926099769981 
994	 0.108974666973616 
995	 0.109051957007563 
996	 0.109142980438962 
997	 0.109267155004799 
998	 0.109364402028759 
999	 0.109056270555246 
1000	 0.109302185840032 
1001	 0.109661076291043 
1002	 0.109645963409205 
1003	 0.109717843393536 
1004	 0.109873280256058 
1005	 0.110364289343126 
1006	 0.110457501237384 
1007	 0.110328091938305 
1008	 0.110359594615189 
1009	 0.11033500580136 
1010	 0.110339690250257 
1011	 0.110400303394056 
1012	 0.110489080187359 
1013	 0.110558807200085 
1014	 0.110620643663046 
1015	 0.11071626185401 
1016	 0.110868330890084 
1017	 0.110927476945348 
1018	 0.111082981885314 
1019	 0.111356313320716 
1020	 0.111586787208162 
1021	 0.111744896025674 
1022	 0.111967379632489 
1023	 0.111931429843722 
1024	 0.111552110911285 
1025	 0.111529295379196 
1026	 0.111545590271753 
1027	 0.111601100744985 
1028	 0.111858402137491 
1029	 0.112095710970194 
1030	 0.112206621332675 
1031	 0.1121195343016 
1032	 0.111970820448088 
1033	 0.112001719334724 
1034	 0.111993644647079 
1035	 0.111958330283468 
1036	 0.112060380031132 
1037	 0.112378314759709 
1038	 0.1124864408577 
1039	 0.112511588149675 
1040	 0.112629421696775 
1041	 0.112750918159125 
1042	 0.112755400345698 
1043	 0.112738663361694 
1044	 0.112802930387064 
1045	 0.11274460739572 
1046	 0.112702786497136 
1047	 0.112747166360647 
1048	 0.112950148096752 
1049	 0.113193822369381 
1050	 0.113320388214944 
1051	 0.113338270349674 
1052	 0.113378478211517 
1053	 0.1134020951967 
1054	 0.113205289164899 
1055	 0.113251776802088 
1056	 0.113495428573757 
1057	 0.113669525948282 
1058	 0.113913054823608 
1059	 0.114161479503191 
1060	 0.114141480827583 
1061	 0.113972527376589 
1062	 0.113755093934988 
1063	 0.113724145601439 
1064	 0.113972900029427 
1065	 0.114171410529946 
1066	 0.114436825570356 
1067	 0.114608474651381 
1068	 0.11456989851651 
1069	 0.114756604877845 
1070	 0.114872376241861 
1071	 0.114943487577165 
1072	 0.11497310001737 
1073	 0.115206419400417 
1074	 0.115145031851342 
1075	 0.115053927848756 
1076	 0.115280276598739 
1077	 0.115464053442257 
1078	 0.115674051272988 
1079	 0.115883197001072 
1080	 0.115853178794618 
1081	 0.115801095008479 
1082	 0.115880556239471 
1083	 0.115989445905213 
1084	 0.116102971334798 
1085	 0.116260635273154 
1086	 0.116381096258253 
1087	 0.116429058028427 
1088	 0.116544810149461 
1089	 0.116775313322224 
1090	 0.116889695338913 
1091	 0.11703495859201 
1092	 0.1171683334479 
1093	 0.11724714123534 
1094	 0.117423524358145 
1095	 0.117595050202523 
1096	 0.117707093331153 
1097	 0.117816986756013 
1098	 0.117985416276396 
1099	 0.118079197945937 
1100	 0.118169064296376 
1101	 0.118294535531586 
1102	 0.118322968664936 
1103	 0.118399900559332 
1104	 0.118457102089707 
1105	 0.118622510153835 
1106	 0.118803093855339 
1107	 0.118930996283501 
1108	 0.119076562035162 
1109	 0.119246367927112 
1110	 0.119461936768559 
1111	 0.119709885170844 
1112	 0.119933502963844 
1113	 0.120009940180493 
1114	 0.119945403023657 
1115	 0.119943948640806 
1116	 0.119991667835722 
1117	 0.120136920560346 
1118	 0.120331538362581 
1119	 0.120702458737367 
1120	 0.120914295195617 
1121	 0.121078419533139 
1122	 0.121267506591641 
1123	 0.121437062326584 
1124	 0.121520761209365 
1125	 0.121679101601776 
1126	 0.121784712200358 
1127	 0.121838593932913 
1128	 0.121998695222775 
1129	 0.122150873036129 
1130	 0.122265723313688 
1131	 0.122476960125823 
1132	 0.122676467981359 
1133	 0.122780030525426 
1134	 0.122966392663911 
1135	 0.123158543337128 
1136	 0.12334246128131 
1137	 0.123486665370826 
1138	 0.123605837090152 
1139	 0.123803297989595 
1140	 0.124004220375497 
1141	 0.124239707658296 
1142	 0.124451543160883 
1143	 0.124648408426799 
1144	 0.124735691053296 
1145	 0.124783047077506 
1146	 0.124970763474025 
1147	 0.125258246274239 
1148	 0.125538682004431 
1149	 0.125741010896194 
1150	 0.125958407724125 
1151	 0.126119631654163 
1152	 0.126245574279015 
1153	 0.126315499359792 
1154	 0.126471806311146 
1155	 0.126601671266221 
1156	 0.126771874156199 
1157	 0.127012708967548 
1158	 0.127231148772192 
1159	 0.127450515461971 
1160	 0.127662779607588 
1161	 0.127890257888786 
1162	 0.128127769232102 
1163	 0.128303715957058 
1164	 0.128512083035159 
1165	 0.128758462288208 
1166	 0.128990260693209 
1167	 0.129201449011931 
1168	 0.129341210672558 
1169	 0.129557027210772 
1170	 0.129779473034189 
1171	 0.130006807504148 
1172	 0.130313927338056 
1173	 0.130542248536592 
1174	 0.130657140604483 
1175	 0.130892298917254 
1176	 0.131187889659576 
1177	 0.131460713962282 
1178	 0.131835246201359 
1179	 0.132070139870081 
1180	 0.132272755428657 
1181	 0.132539677527356 
1182	 0.132737166928762 
1183	 0.13294324923863 
1184	 0.133183173972958 
1185	 0.133394923619439 
1186	 0.133662645596289 
1187	 0.134009336855843 
1188	 0.134312014523562 
1189	 0.134641255488304 
1190	 0.134894398460005 
1191	 0.135062793298766 
1192	 0.13533014983373 
1193	 0.135601496687496 
1194	 0.13586074708341 
1195	 0.136203012211559 
1196	 0.136496263496471 
1197	 0.136704593640838 
1198	 0.136989827375625 
1199	 0.13731443180097 
1200	 0.137547577413486 
1201	 0.137795671082078 
1202	 0.138103967490487 
1203	 0.13845899290318 
1204	 0.138805282314945 
1205	 0.139164210609731 
1206	 0.139594448268466 
1207	 0.139928953221186 
1208	 0.140169340121115 
1209	 0.140524602315964 
1210	 0.140905526044087 
1211	 0.141256794544059 
1212	 0.141661657346717 
1213	 0.142057442895753 
1214	 0.142411459951513 
1215	 0.142782352171648 
1216	 0.143202411545117 
1217	 0.143591610478886 
1218	 0.143946891984291 
1219	 0.14427845735075 
1220	 0.144705691036488 
1221	 0.145220428726782 
1222	 0.145703684106979 
1223	 0.146198702753349 
1224	 0.146626410624174 
1225	 0.146957374164593 
1226	 0.147364015652534 
1227	 0.147767396239855 
1228	 0.148200446807148 
1229	 0.148709711062201 
1230	 0.149130807947683 
1231	 0.149484674330823 
1232	 0.149916058570793 
1233	 0.150376754129965 
1234	 0.15078368082296 
1235	 0.151181040416172 
1236	 0.151620407280046 
1237	 0.152044044703218 
1238	 0.152450735979082 
1239	 0.152866002035535 
1240	 0.153352496730021 
1241	 0.153826635923969 
1242	 0.154200821242304 
1243	 0.154618408714612 
1244	 0.15509194488001 
1245	 0.155504811844142 
1246	 0.155865586440047 
1247	 0.156237153938932 
1248	 0.156551960316225 
1249	 0.156987040120132 
1250	 0.157506998905795 
1251	 0.157929900538413 
1252	 0.158376903718388 
1253	 0.158833877780733 
1254	 0.159226272103303 
1255	 0.159635127774338 
1256	 0.160117693898267 
1257	 0.16054785333436 
1258	 0.16089525598226 
1259	 0.16127702537312 
1260	 0.161691430298414 
1261	 0.162094836518374 
1262	 0.162463219539129 
1263	 0.162881884698319 
1264	 0.16328503857152 
1265	 0.163683192593977 
1266	 0.164101582902857 
1267	 0.164549886213455 
1268	 0.16494700169016 
1269	 0.16533639983607 
1270	 0.165717055713894 
1271	 0.166028364435438 
1272	 0.166431293949186 
1273	 0.166887372403543 
1274	 0.167327355519983 
1275	 0.167797383149776 
1276	 0.168265108878065 
1277	 0.168747280686861 
1278	 0.169193075900637 
1279	 0.169622125171262 
1280	 0.170069982879458 
1281	 0.170473803764679 
1282	 0.170919985539484 
1283	 0.171406628549266 
1284	 0.17190345913166 
1285	 0.17241448130495 
1286	 0.172942950216464 
1287	 0.17345970988834 
1288	 0.174012808098433 
1289	 0.174487948513667 
1290	 0.174908502161142 
1291	 0.175376730884838 
1292	 0.175817490871979 
1293	 0.176287407741853 
1294	 0.176786792917692 
1295	 0.177296846863136 
1296	 0.177825423302855 
1297	 0.178327443158433 
1298	 0.178834247590844 
1299	 0.179349158648955 
1300	 0.179851648214364 
1301	 0.180344558423361 
1302	 0.180872861184028 
1303	 0.181356296655164 
1304	 0.181755696049284 
1305	 0.18221833364178 
1306	 0.182736087117393 
1307	 0.18319664872426 
1308	 0.183630710774511 
1309	 0.184095528884861 
1310	 0.184560722475989 
1311	 0.184988529494685 
1312	 0.185442282916526 
1313	 0.185923569516394 
1314	 0.186426023886534 
1315	 0.18692619894763 
1316	 0.187423022559053 
1317	 0.187983092890067 
1318	 0.188468697195993 
1319	 0.18888755560519 
1320	 0.189338461450218 
1321	 0.189755957610552 
1322	 0.190234296967537 
1323	 0.190745598174919 
1324	 0.191252728197057 
1325	 0.191839275164704 
1326	 0.192332770071063 
1327	 0.192763807914214 
1328	 0.193211434319292 
1329	 0.193590968522995 
1330	 0.194025595111159 
1331	 0.194490811066595 
1332	 0.194966461245742 
1333	 0.195466800995512 
1334	 0.196006126189959 
1335	 0.196427367075623 
1336	 0.196789005819287 
1337	 0.197239888559195 
1338	 0.197655809026052 
1339	 0.198091120881803 
1340	 0.198613721351235 
1341	 0.199067420711333 
1342	 0.199451928202535 
1343	 0.199879401537025 
1344	 0.200327325562565 
1345	 0.200777955888628 
1346	 0.201232416680403 
1347	 0.201670577464833 
1348	 0.202112656934174 
1349	 0.202560251882263 
1350	 0.203002327175675 
1351	 0.20343073231762 
1352	 0.203883409041239 
1353	 0.204300161711605 
1354	 0.204662882527751 
1355	 0.205054963256783 
1356	 0.205466362358396 
1357	 0.205852220822669 
1358	 0.206198214433165 
1359	 0.206599385322333 
1360	 0.207036772894705 
1361	 0.207440058491975 
1362	 0.207871811681816 
1363	 0.208308116536953 
1364	 0.208665798028072 
1365	 0.208935194502737 
1366	 0.20927872544667 
1367	 0.209611086775213 
1368	 0.209967670846323 
1369	 0.21039577351906 
1370	 0.210713869243233 
1371	 0.210967475162879 
1372	 0.211269644025893 
1373	 0.211548724429465 
1374	 0.211822806051175 
1375	 0.212133007691684 
1376	 0.212414977155439 
1377	 0.212668361817976 
1378	 0.212902014767507 
1379	 0.213156639385267 
1380	 0.213355811667376 
1381	 0.213516375525423 
1382	 0.213639460621588 
1383	 0.213742645763902 
1384	 0.213790582853132 
1385	 0.213798578616659 
1386	 0.213747901669321 
1387	 0.213655871364064 
1388	 0.213502969857195 
1389	 0.213194744048463 
1390	 0.212990685501506 
1391	 0.212768037164026 
1392	 0.212593253280128 
1393	 0.212539897491404 
1394	 0.212512936873565 
1395	 0.212537613911478 
1396	 0.212606182971549 
1397	 0.212720116050281 
1398	 0.212905400853347 
1399	 0.213068088388705 
1400	 0.21329734108173 
1401	 0.213427528081017 
1402	 0.213530911670342 
1403	 0.213598862593954 
1404	 0.21359841860534 
1405	 0.213622287382104 
1406	 0.213648778019939 
1407	 0.213634559777724 
1408	 0.213587749819625 
1409	 0.213555581938961 
1410	 0.213476943366925 
1411	 0.213456709264047 
1412	 0.213443120301018 
1413	 0.21348799119876 
1414	 0.213574836330002 
1415	 0.213693305757076 
1416	 0.213858715249015 
1417	 0.21404910907273 
1418	 0.214247293074927 
1419	 0.214510826444654 
1420	 0.21484798731584 
1421	 0.215186626451933 
1422	 0.215582394641704 
1423	 0.215961172965293 
1424	 0.216310010326323 
1425	 0.216726379641108 
1426	 0.217111334821298 
1427	 0.217483554144126 
1428	 0.2178849985544 
1429	 0.218246617520565 
1430	 0.218624839284542 
1431	 0.218999102862901 
1432	 0.219407589147031 
1433	 0.21983412659175 
1434	 0.220241231254365 
1435	 0.220668009246746 
1436	 0.221083118692652 
1437	 0.221466136639133 
1438	 0.221876609980231 
1439	 0.22229799276988 
1440	 0.222743956809464 
1441	 0.223194337135549 
1442	 0.223676265128924 
1443	 0.224216184727153 
1444	 0.224713329872197 
1445	 0.225186473410309 
1446	 0.225693256071474 
1447	 0.22616561457383 
1448	 0.226727476318633 
1449	 0.227355991628365 
1450	 0.227996672420642 
1451	 0.22869491375029 
1452	 0.229389802295389 
1453	 0.230095635982482 
1454	 0.230818838884306 
1455	 0.23157352401674 
1456	 0.232315018427952 
1457	 0.233086241640721 
1458	 0.23381911168773 
1459	 0.234522475531284 
1460	 0.235231876514483 
1461	 0.235913842827724 
1462	 0.236609165738327 
1463	 0.237313838169581 
1464	 0.238021120704224 
1465	 0.238721341572002 
1466	 0.239442576188206 
1467	 0.240187865650469 
1468	 0.240899112362902 
1469	 0.241602824832699 
1470	 0.242296610502073 
1471	 0.242975439533733 
1472	 0.243614642187919 
1473	 0.244306553122387 
1474	 0.245010265988843 
1475	 0.245724250750544 
1476	 0.246483490152395 
1477	 0.247181190203457 
1478	 0.247864727237873 
1479	 0.248521367040513 
1480	 0.249129573555526 
1481	 0.249767555528897 
1482	 0.250404983167293 
1483	 0.251042196330061 
1484	 0.251693606781113 
1485	 0.25232717234801 
1486	 0.252963061482041 
1487	 0.253553577864719 
1488	 0.25409773743731 
1489	 0.254678662771264 
1490	 0.255219205641262 
1491	 0.255831174141625 
1492	 0.256503049465076 
1493	 0.257169890200397 
1494	 0.257888422838695 
1495	 0.258551384125803 
1496	 0.259222202702783 
1497	 0.259838949017906 
1498	 0.260364391835191 
1499	 0.260966823525745 
1500	 0.261561381635864 
1501	 0.262193128790925 
1502	 0.262901142019612 
1503	 0.263561902818355 
1504	 0.264237629823467 
1505	 0.264867982688828 
1506	 0.265456603129673 
1507	 0.266056623576167 
1508	 0.266619471046434 
1509	 0.267200838302722 
1510	 0.267819641095395 
1511	 0.268390811361428 
1512	 0.268901740651639 
1513	 0.269474878658464 
1514	 0.27009154910953 
1515	 0.270655694905363 
1516	 0.271239932350828 
1517	 0.271804553172078 
1518	 0.272300237451834 
1519	 0.272805004574551 
1520	 0.273330264392576 
1521	 0.27384350227693 
1522	 0.274314018050688 
1523	 0.274783765066196 
1524	 0.275249525295712 
1525	 0.275690799763059 
1526	 0.276188818418521 
1527	 0.276712985306169 
1528	 0.277211623733102 
1529	 0.277743370335608 
1530	 0.278222679653504 
1531	 0.278672970018517 
1532	 0.279098310345111 
1533	 0.279486551563915 
1534	 0.279913660363179 
1535	 0.280317126879914 
1536	 0.280754568664689 
1537	 0.281241431165464 
1538	 0.281690428735336 
1539	 0.282118665503294 
1540	 0.282571917974715 
1541	 0.283014283270944 
1542	 0.283506575453971 
1543	 0.284027595395113 
1544	 0.284559169550764 
1545	 0.285146883370721 
1546	 0.285674741596631 
1547	 0.286191983056498 
1548	 0.286694819874795 
1549	 0.287159014490026 
1550	 0.287645518940042 
1551	 0.288139986714538 
1552	 0.288622211321677 
1553	 0.28908316926912 
1554	 0.289584032541166 
1555	 0.290090467715935 
1556	 0.29061707492487 
1557	 0.291211496896973 
1558	 0.291727990571645 
1559	 0.292174113391371 
1560	 0.292711478922081 
1561	 0.293287094728455 
1562	 0.293807263243822 
1563	 0.294380019054168 
1564	 0.294889544706897 
1565	 0.295284548250154 
1566	 0.295754478079075 
1567	 0.296240398867984 
1568	 0.296757027176838 
1569	 0.297317955047191 
1570	 0.297847240692466 
1571	 0.29841307486972 
1572	 0.298924143446602 
1573	 0.299351577307153 
1574	 0.299855962945915 
1575	 0.300371022978871 
1576	 0.300904348300107 
1577	 0.301496251241385 
1578	 0.302064453566621 
1579	 0.302631758988847 
1580	 0.30318712561345 
1581	 0.303754578075183 
1582	 0.304288532007732 
1583	 0.304785174972833 
1584	 0.305297463316748 
1585	 0.305808188981579 
1586	 0.306301843413991 
1587	 0.306772117260285 
1588	 0.30727491087322 
1589	 0.307760226002104 
1590	 0.308283104565966 
1591	 0.308882041186763 
1592	 0.309425985108126 
1593	 0.309966193562923 
1594	 0.310487029835321 
1595	 0.310943022534129 
1596	 0.311452061971449 
1597	 0.311999475142981 
1598	 0.312513220247634 
1599	 0.313049237747956 
1600	 0.313554804771658 
1601	 0.314002995832556 
1602	 0.314480991755279 
1603	 0.314954710653042 
1604	 0.315448851817472 
1605	 0.316001331969705 
1606	 0.316485226251781 
1607	 0.316922228652044 
1608	 0.317392021587884 
1609	 0.317833210461202 
1610	 0.318283211639558 
1611	 0.318773996674511 
1612	 0.319251845664442 
1613	 0.319693062842081 
1614	 0.320164706899646 
1615	 0.32068612664327 
1616	 0.321159635136499 
1617	 0.32164014494651 
1618	 0.322079949301836 
1619	 0.322443846839215 
1620	 0.322842330787068 
1621	 0.323255373825634 
1622	 0.323636081168735 
1623	 0.323991631545069 
1624	 0.324390859936682 
1625	 0.324774262103456 
1626	 0.325178691280097 
1627	 0.325695129150459 
1628	 0.326088850193479 
1629	 0.326376607818661 
1630	 0.326727519800404 
1631	 0.327032570849976 
1632	 0.32737751549991 
1633	 0.327791478344901 
1634	 0.328192848121838 
1635	 0.328575022242887 
1636	 0.328979615280392 
1637	 0.329424815521854 
1638	 0.329845793675923 
1639	 0.330287984915261 
1640	 0.330685075895909 
1641	 0.33105658297347 
1642	 0.331411697710265 
1643	 0.331723223097488 
1644	 0.33203202779597 
1645	 0.332297012896851 
1646	 0.332611817646029 
1647	 0.332961626698799 
1648	 0.333283697101329 
1649	 0.33364357229911 
1650	 0.333966698011958 
1651	 0.334275811304053 
1652	 0.334514560968171 
1653	 0.334684454060178 
1654	 0.334886577569632 
1655	 0.33505968577476 
1656	 0.335220019994278 
1657	 0.335444471126438 
1658	 0.335554012859356 
1659	 0.335531374019402 
1660	 0.33556327896412 
1661	 0.3356131637357 
1662	 0.335601777331101 
1663	 0.335580252859697 
1664	 0.335523330747787 
1665	 0.335422717199881 
1666	 0.335240879937103 
1667	 0.335028463231227 
1668	 0.334767733625401 
1669	 0.334407240943641 
1670	 0.334046973543207 
1671	 0.333720617608371 
1672	 0.333254192372217 
1673	 0.332691456530456 
1674	 0.332062674256332 
1675	 0.331321188638018 
1676	 0.330576403426761 
1677	 0.329778085128109 
1678	 0.328986366505705 
1679	 0.328199030333915 
1680	 0.327298350840816 
1681	 0.326349144309547 
1682	 0.325343960044072 
1683	 0.324261081120412 
1684	 0.32314815695725 
1685	 0.32202114308466 
1686	 0.320786877566156 
1687	 0.319426731287646 
1688	 0.318058831182602 
1689	 0.316608630383938 
1690	 0.31518721857124 
1691	 0.313799196280195 
1692	 0.312340840482445 
1693	 0.31084441244667 
1694	 0.309320380434765 
1695	 0.307754524147819 
1696	 0.306123226155832 
1697	 0.304453349516791 
1698	 0.302746216516653 
1699	 0.300944697078241 
1700	 0.299232503900823 
1701	 0.297551264171421 
1702	 0.295839717805874 
1703	 0.294061761717922 
1704	 0.292451339176714 
1705	 0.290835452094262 
1706	 0.289368330376041 
1707	 0.288220172878775 
1708	 0.287044359631922 
1709	 0.285912604556071 
1710	 0.284982362620552 
1711	 0.284007615363058 
1712	 0.283175556945025 
1713	 0.282399327522769 
1714	 0.281614260250677 
1715	 0.280995288819982 
1716	 0.280335546311516 
1717	 0.279778550868816 
1718	 0.279309715532725 
1719	 0.27876851142661 
1720	 0.278331352596368 
1721	 0.277953493570671 
1722	 0.277621753863942 
1723	 0.277406617624787 
1724	 0.27725454236856 
1725	 0.277270190374957 
1726	 0.277468605543621 
1727	 0.277761162066545 
1728	 0.278196236165118 
1729	 0.278745894131417 
1730	 0.279414372314798 
1731	 0.280253584870951 
1732	 0.281229739224895 
1733	 0.282220286884638 
1734	 0.283256855465816 
1735	 0.284387631232028 
1736	 0.285558365052042 
1737	 0.286728665563573 
1738	 0.287712562963759 
1739	 0.28853197514849 
1740	 0.289140824807891 
1741	 0.289691328363818 
1742	 0.290216829398044 
1743	 0.290554831921763 
1744	 0.290671116935073 
1745	 0.290801071679967 
1746	 0.290754377810607 
1747	 0.290778481635236 
1748	 0.290838582412613 
1749	 0.29086829295727 
1750	 0.290831367270508 
1751	 0.290941475084346 
1752	 0.291078786316396 
1753	 0.291311587349907 
1754	 0.291671662555634 
1755	 0.292049462108519 
1756	 0.292420452646702 
1757	 0.292929031841393 
1758	 0.293582492186446 
1759	 0.294324887444042 
1760	 0.295235026146053 
1761	 0.296333226698343 
1762	 0.297402023734916 
1763	 0.298502990928655 
1764	 0.299745600243283 
1765	 0.301025858626943 
1766	 0.302427337914941 
1767	 0.303952893352559 
1768	 0.305569829635639 
1769	 0.307188053362788 
1770	 0.308702547738785 
1771	 0.310280868711872 
1772	 0.311772562702099 
1773	 0.313082500308313 
1774	 0.314433590594327 
1775	 0.315634313067043 
1776	 0.316736130263954 
1777	 0.317903058060993 
1778	 0.318950492526658 
1779	 0.319892430156959 
1780	 0.320751211538254 
1781	 0.321481040832199 
1782	 0.322240301849803 
1783	 0.323063812027769 
1784	 0.323875002917817 
1785	 0.324584551981983 
1786	 0.325219394878296 
1787	 0.325751292846 
1788	 0.326281586796368 
1789	 0.326766116153118 
1790	 0.327256073000263 
1791	 0.327738674957797 
1792	 0.328217603160312 
1793	 0.328665681372755 
1794	 0.329119581877784 
1795	 0.329538029333973 
1796	 0.329987356744074 
1797	 0.330515444088779 
1798	 0.330979992839966 
1799	 0.331419222162208 
1800	 0.331793219740087 
1801	 0.332034600860496 
1802	 0.332617908122623 
1803	 0.333115746372516 
1804	 0.333595160021244 
1805	 0.334113510762523 
1806	 0.334565452118824 
1807	 0.334946890316733 
1808	 0.33540289862266 
1809	 0.335906870607349 
1810	 0.336331348549293 
1811	 0.336733683276511 
1812	 0.337152969935025 
1813	 0.337502941029567 
1814	 0.337890655884775 
1815	 0.33839118997566 
1816	 0.338900636029716 
1817	 0.339366240308145 
1818	 0.339774937503787 
1819	 0.340304100866982 
1820	 0.34088606105482 
1821	 0.341434932268176 
1822	 0.342065339124446 
1823	 0.342669778986281 
1824	 0.343177029581572 
1825	 0.343632599051424 
1826	 0.344102548306654 
1827	 0.344548974850415 
1828	 0.345037650801642 
1829	 0.345514002748915 
1830	 0.346015199271412 
1831	 0.346557599771704 
1832	 0.347100210218337 
1833	 0.347595157265988 
1834	 0.348110696765651 
1835	 0.348665941714655 
1836	 0.349116487504863 
1837	 0.349587517570273 
1838	 0.350061416339174 
1839	 0.350535746335873 
1840	 0.350976250379114 
1841	 0.351454309390678 
1842	 0.351954458100959 
1843	 0.352424415179754 
1844	 0.352996193611302 
1845	 0.35351218028175 
1846	 0.353965269228761 
1847	 0.354393855434478 
1848	 0.354765162023898 
1849	 0.355005786867026 
1850	 0.355318152648888 
1851	 0.355637073720779 
1852	 0.355970105695384 
1853	 0.356276529331083 
1854	 0.356511491140405 
1855	 0.356714429812311 
1856	 0.35686811780814 
1857	 0.356946227813275 
1858	 0.357027803010779 
1859	 0.357077075008056 
1860	 0.357082420249557 
1861	 0.35708069307472 
1862	 0.35708072526796 
1863	 0.35700656668487 
1864	 0.356937499961857 
1865	 0.356830715536521 
1866	 0.356614946646043 
1867	 0.35642722953509 
1868	 0.356212081891545 
1869	 0.355871345691477 
1870	 0.355444435065636 
1871	 0.354947868837186 
1872	 0.354379205719875 
1873	 0.353698523426252 
1874	 0.352998119175989 
1875	 0.352258275725143 
1876	 0.351398989703208 
1877	 0.350439820438858 
1878	 0.34931458617486 
1879	 0.348131732293515 
1880	 0.346937934964902 
1881	 0.345604570210191 
1882	 0.344167261336822 
1883	 0.342692687210029 
1884	 0.341082652395274 
1885	 0.339144976008677 
1886	 0.337053228879446 
1887	 0.334807034821302 
1888	 0.332269841564089 
1889	 0.329701562482159 
1890	 0.327035749654438 
1891	 0.324275175249518 
1892	 0.321321505587757 
1893	 0.318204571380831 
1894	 0.31488559242456 
1895	 0.311566854746842 
1896	 0.308029298966535 
1897	 0.304525365743188 
1898	 0.301303994483849 
1899	 0.297942923943854 
1900	 0.294666351848628 
1901	 0.291492309517132 
1902	 0.288171953444977 
1903	 0.285016913147061 
1904	 0.282021921778396 
1905	 0.279101445510881 
1906	 0.276415129526013 
1907	 0.27405440613828 
1908	 0.27177771373549 
1909	 0.269756816300021 
1910	 0.267959313683751 
1911	 0.26618122480889 
1912	 0.264657205404261 
1913	 0.263340614582422 
1914	 0.262178603196107 
1915	 0.261197775418868 
1916	 0.260446392139392 
1917	 0.259811131347082 
1918	 0.259308113813728 
1919	 0.258868958814844 
1920	 0.258473926482301 
1921	 0.258238372486884 
1922	 0.258072923531785 
1923	 0.257959059080837 
1924	 0.257987693325737 
1925	 0.25809014902237 
1926	 0.258213285455106 
1927	 0.258409443706269 
1928	 0.258612703455485 
1929	 0.25885097281638 
1930	 0.259084407297365 
1931	 0.259355896352753 
1932	 0.259692080017982 
1933	 0.260106495069796 
1934	 0.260563872232837 
1935	 0.261067670358466 
1936	 0.261500083100295 
1937	 0.261993996333557 
1938	 0.262503321391841 
1939	 0.263065201433598 
1940	 0.263636778822418 
1941	 0.264339294336441 
1942	 0.265037050658557 
1943	 0.265655551471901 
1944	 0.266305756015367 
1945	 0.26698130042095 
1946	 0.267664372869156 
1947	 0.268387429241088 
1948	 0.269208760673202 
1949	 0.270002622513467 
1950	 0.270782695736249 
1951	 0.271552147234911 
1952	 0.272387881094347 
1953	 0.273220177721082 
1954	 0.274078893924999 
1955	 0.27505483249339 
1956	 0.275986851618179 
1957	 0.276858807274682 
1958	 0.277778067205048 
1959	 0.27860889193309 
1960	 0.279497033832355 
1961	 0.280384266781569 
1962	 0.281265991350239 
1963	 0.282130437525117 
1964	 0.283022069908275 
1965	 0.283858753175842 
1966	 0.284637292628486 
1967	 0.285502695491675 
1968	 0.286302243991951 
1969	 0.287074305649031 
1970	 0.287836315731859 
1971	 0.288601582774453 
1972	 0.289403524858696 
1973	 0.290224272692938 
1974	 0.291020797539378 
1975	 0.291834058484146 
1976	 0.292625636650325 
1977	 0.293369305106193 
1978	 0.294159589052032 
1979	 0.295009554640916 
1980	 0.295777737765121 
1981	 0.296537248832753 
1982	 0.297295167124245 
1983	 0.298043124493931 
1984	 0.298844813360163 
1985	 0.299615929257171 
1986	 0.300402532971424 
1987	 0.301161093165546 
1988	 0.301856050396402 
1989	 0.302590102919003 
1990	 0.303343480979828 
1991	 0.304088986602794 
1992	 0.304820915301079 
1993	 0.305589260150517 
1994	 0.306362756358487 
1995	 0.307160906227265 
1996	 0.3079350718212 
1997	 0.308748105855189 
1998	 0.309533830176387 
1999	 0.310314164983499 
2000	 0.311035892731791 
2001	 0.311760949039106 
2002	 0.312422554608375 
2003	 0.313006706192751 
2004	 0.313626208821259 
2005	 0.314193445910232 
2006	 0.314785811093963 
2007	 0.315415637003286 
2008	 0.316017453868714 
2009	 0.316565930164909 
2010	 0.317160509797173 
2011	 0.317691945955067 
2012	 0.318140034912662 
2013	 0.318507184211752 
2014	 0.318785272174095 
2015	 0.319063877167824 
2016	 0.319228709067819 
2017	 0.319447410859667 
2018	 0.319704007047199 
2019	 0.319896309327406 
2020	 0.320044228654432 
2021	 0.320231483369872 
2022	 0.320312003094607 
2023	 0.32040797345229 
2024	 0.320504540171236 
2025	 0.320472997360211 
2026	 0.320457093371482 
2027	 0.320402359680903 
2028	 0.320368379901047 
2029	 0.320331582186405 
2030	 0.320269311462444 
2031	 0.320212804875616 
2032	 0.320103615695059 
2033	 0.319940631245787 
2034	 0.319784266625416 
2035	 0.31958807714811 
2036	 0.319412658349255 
2037	 0.319276445228031 
2038	 0.319114295347965 
2039	 0.318963019840401 
2040	 0.318823148120541 
2041	 0.318696187406496 
2042	 0.318605742036266 
2043	 0.318431037730777 
2044	 0.318214192600975 
2045	 0.318034294792577 
2046	 0.317784211254058 
2047	 0.317598470525366 
2048	 0.317491328636752 
2049	 0.317368605317322 
2050	 0.317261115447382 
2051	 0.317118684586832 
2052	 0.317034492786743 
2053	 0.316958840235151 
2054	 0.316853962783177 
2055	 0.316733775554518 
2056	 0.316645048481291 
2057	 0.316572934503148 
2058	 0.316454733863222 
2059	 0.316347869852451 
2060	 0.316221755178923 
2061	 0.316043297726169 
2062	 0.315876636803812 
2063	 0.315701952244934 
2064	 0.31554197705382 
2065	 0.315377849186142 
2066	 0.315210173022372 
2067	 0.315073528911503 
2068	 0.314984147543499 
2069	 0.314856188056271 
2070	 0.314716373002735 
2071	 0.314599228174981 
2072	 0.314490616246959 
2073	 0.314370919498524 
2074	 0.314273261079345 
2075	 0.314143720346347 
2076	 0.313945170845843 
2077	 0.313823967535814 
2078	 0.313767778277964 
2079	 0.313663263277186 
2080	 0.313635500569637 
2081	 0.313492887885089 
2082	 0.313252868506094 
2083	 0.312971798154547 
2084	 0.31268613449018 
2085	 0.312448145731809 
2086	 0.312274853997713 
2087	 0.312227773806766 
2088	 0.312040445260176 
2089	 0.311829619699343 
2090	 0.311637394662785 
2091	 0.311373299525948 
2092	 0.311151432627894 
2093	 0.311011020950843 
2094	 0.310803316766673 
2095	 0.310510737763762 
2096	 0.310286127660609 
2097	 0.310109509716303 
2098	 0.309884729283104 
2099	 0.309670455897621 
2100	 0.309502711217346 
2101	 0.309220196540358 
2102	 0.308866652495474 
2103	 0.308516413784233 
2104	 0.308062964322629 
2105	 0.307734272398381 
2106	 0.307512898697943 
2107	 0.307151938258672 
2108	 0.306770661257112 
2109	 0.306394287102358 
2110	 0.305935247146146 
2111	 0.305479516928751 
2112	 0.305031960026311 
2113	 0.304607367872446 
2114	 0.30415674603911 
2115	 0.303707291791014 
2116	 0.303296220013605 
2117	 0.302914927542816 
2118	 0.302449322166649 
2119	 0.301904700764709 
2120	 0.301414144019232 
2121	 0.300882927608224 
2122	 0.300439605008762 
2123	 0.300064536329561 
2124	 0.299661719666813 
2125	 0.299276225850965 
2126	 0.298910571451219 
2127	 0.29852896502484 
2128	 0.298186842780785 
2129	 0.297837185143547 
2130	 0.297598269065569 
2131	 0.297449932694292 
2132	 0.297290370531579 
2133	 0.297181592306664 
2134	 0.297170640484487 
2135	 0.296999434562737 
2136	 0.296822364624332 
2137	 0.296743657908108 
2138	 0.296686372883957 
2139	 0.296634967996675 
2140	 0.296672901888279 
2141	 0.296666241143226 
2142	 0.296578130422651 
2143	 0.29662566577482 
2144	 0.296739704742253 
2145	 0.296879704147229 
2146	 0.297113366311527 
2147	 0.297316618652968 
2148	 0.297542179181837 
2149	 0.297756055962208 
2150	 0.297935594896329 
2151	 0.298175377041766 
2152	 0.298466774592683 
2153	 0.298722404301249 
2154	 0.299000222031067 
2155	 0.299364932947097 
2156	 0.299688887032507 
2157	 0.300027531790007 
2158	 0.300320270039162 
2159	 0.300600205636385 
2160	 0.300861573154454 
2161	 0.301098057777016 
2162	 0.301296203029034 
2163	 0.301505206628602 
2164	 0.301637621435151 
2165	 0.301649152054575 
2166	 0.301746653548395 
2167	 0.301837889620011 
2168	 0.301948928994579 
2169	 0.302093638528982 
2170	 0.30224170054201 
2171	 0.302431334842711 
2172	 0.302558578658949 
2173	 0.302684620477583 
2174	 0.30279364035995 
2175	 0.30275501472838 
2176	 0.302774943095798 
2177	 0.302814706641655 
2178	 0.302849868524203 
2179	 0.30288844061111 
2180	 0.302977623698112 
2181	 0.303007940606982 
2182	 0.302984921823692 
2183	 0.303017026455163 
2184	 0.303071820980258 
2185	 0.303091287840504 
2186	 0.303154061310533 
2187	 0.303128169009292 
2188	 0.303049515920675 
2189	 0.302942288390473 
2190	 0.302793158334316 
2191	 0.302600856272854 
2192	 0.302335807597981 
2193	 0.302089607014212 
2194	 0.301793433324223 
2195	 0.301519856162353 
2196	 0.30125225034475 
2197	 0.301034256199306 
2198	 0.300749653497381 
2199	 0.300434888096426 
2200	 0.300027433537021 
2201	 0.29949299253112 
2202	 0.299070730028573 
2203	 0.298612807737775 
2204	 0.29823330720737 
2205	 0.298020742921984 
2206	 0.297579619292555 
2207	 0.297020975913206 
2208	 0.296525849091131 
2209	 0.295949247054039 
2210	 0.295407595475662 
2211	 0.294943685697105 
2212	 0.294421287068417 
2213	 0.293778702572552 
2214	 0.293244398108889 
2215	 0.292802180032766 
2216	 0.292304359311548 
2217	 0.291857597288372 
2218	 0.291357193661124 
2219	 0.290847382712285 
2220	 0.290251068488671 
2221	 0.289651354967576 
2222	 0.288879805520423 
2223	 0.288121642176067 
2224	 0.287287479978016 
2225	 0.286379680932306 
2226	 0.285381273658419 
2227	 0.284241644768475 
2228	 0.282913830928878 
2229	 0.281632480875418 
2230	 0.280267935911735 
2231	 0.278906283187664 
2232	 0.277566951230576 
2233	 0.276094548141718 
2234	 0.274638553784943 
2235	 0.272889146541881 
2236	 0.270995430452179 
2237	 0.26892525303594 
2238	 0.266484291498271 
2239	 0.264194908831446 
2240	 0.261830889907113 
2241	 0.2594481218952 
2242	 0.257193200505964 
2243	 0.254710215958474 
2244	 0.25208402966614 
2245	 0.249401908709433 
2246	 0.246389006510006 
2247	 0.243596941571893 
2248	 0.240910432654262 
2249	 0.238177243341793 
2250	 0.235484127123586 
2251	 0.232944524793781 
2252	 0.230089645756109 
2253	 0.227300432898557 
2254	 0.224540242079869 
2255	 0.221748925359981 
2256	 0.219119274669524 
2257	 0.216434723992237 
2258	 0.213904316528781 
2259	 0.211473214409347 
2260	 0.209045461416833 
2261	 0.206690739075695 
2262	 0.204420790993893 
2263	 0.202087007936261 
2264	 0.200055471392214 
2265	 0.198356989005268 
2266	 0.196459033210627 
2267	 0.194688551915083 
2268	 0.192786764788419 
2269	 0.190654580806216 
2270	 0.188782722932391 
2271	 0.187073892218049 
2272	 0.185269872922493 
2273	 0.183501401873437 
2274	 0.181745520173589 
2275	 0.180015121828279 
2276	 0.178168512080651 
2277	 0.176426147380218 
2278	 0.174521272766811 
2279	 0.172184952810514 
2280	 0.170182125433009 
2281	 0.168382019710736 
2282	 0.166429009327904 
2283	 0.164491921102041 
2284	 0.162739698839106 
2285	 0.160692082545114 
2286	 0.158520267645816 
2287	 0.156249898529479 
2288	 0.153964852662439 
2289	 0.151770441195457 
2290	 0.14948893715655 
2291	 0.147454601546092 
2292	 0.1454621731139 
2293	 0.143346990851974 
2294	 0.141417932256566 
2295	 0.139536952807298 
2296	 0.137911310100307 
2297	 0.13645104754633 
2298	 0.135202622244412 
2299	 0.134103193870721 
2300	 0.133157448147936 
2301	 0.132452517241877 
2302	 0.131943654237849 
2303	 0.131781974437496 
2304	 0.131887422476984 
2305	 0.132201156026785 
2306	 0.132914950666761 
2307	 0.13361614084776 
2308	 0.134477126542915 
2309	 0.135504066683361 
2310	 0.136738499560499 
2311	 0.137948099249113 
2312	 0.139265418470941 
2313	 0.140669594148206 
2314	 0.142180123640588 
2315	 0.143640972238324 
2316	 0.14523460280639 
2317	 0.146700761797859 
2318	 0.14819315932804 
2319	 0.149395907198154 
2320	 0.150482651371945 
2321	 0.151403970763535 
2322	 0.151987504390831 
2323	 0.152578339921033 
2324	 0.153102132042847 
2325	 0.153576852712253 
2326	 0.154131885969293 
2327	 0.15433454577227 
2328	 0.154302127362967 
2329	 0.154132104139937 
2330	 0.15367664706132 
2331	 0.1530345951772 
2332	 0.152530665340906 
2333	 0.151939579263924 
2334	 0.151060601868946 
2335	 0.150191532876927 
2336	 0.149137831426722 
2337	 0.147879943307874 
2338	 0.14689056676018 
2339	 0.145797497969893 
2340	 0.144449845975592 
2341	 0.143241311461693 
2342	 0.142084680172862 
2343	 0.141034631969426 
2344	 0.140426340887473 
2345	 0.140127919050733 
2346	 0.139873654354989 
2347	 0.139860329509722 
2348	 0.139937648237383 
2349	 0.14038662596297 
2350	 0.141246311010145 
2351	 0.142200035527549 
2352	 0.143355120830085 
2353	 0.144403148875744 
2354	 0.145404687821701 
2355	 0.146406371416254 
2356	 0.147375546594005 
2357	 0.148547146635775 
2358	 0.14947929195097 
2359	 0.150260827304862 
2360	 0.150941910389569 
2361	 0.151143424628337 
2362	 0.151478892168141 
2363	 0.151799928566979 
2364	 0.151735766768432 
2365	 0.151797038741207 
2366	 0.15180806182156 
2367	 0.151415559621992 
2368	 0.151090395340361 
2369	 0.150949719881726 
2370	 0.150905613058371 
2371	 0.151122824734265 
2372	 0.151232891916533 
2373	 0.151223294116356 
2374	 0.151241163812321 
2375	 0.151243600075821 
2376	 0.151225504144901 
2377	 0.151272644000494 
2378	 0.151325692819181 
2379	 0.151097095118244 
2380	 0.151222134667495 
2381	 0.151604111870441 
2382	 0.151788106844699 
2383	 0.152081258870037 
2384	 0.152144458750215 
2385	 0.151834749251341 
2386	 0.151870685813373 
2387	 0.151995010283221 
2388	 0.151879387803166 
2389	 0.151763633113711 
2390	 0.152011375741319 
2391	 0.152274576504623 
2392	 0.152465130491944 
2393	 0.153042045469898 
2394	 0.153197516268861 
2395	 0.152914144051114 
2396	 0.152862855488862 
2397	 0.152876264988903 
2398	 0.15288729431955 
2399	 0.152938617524192 
2400	 0.152845571938024 
2401	 0.152596323725616 
2402	 0.152731724740863 
2403	 0.152666783837337 
2404	 0.152833759245463 
2405	 0.153328964005792 
2406	 0.153296970405079 
2407	 0.15316543331639 
2408	 0.153382069552297 
2409	 0.153512785710744 
2410	 0.153743333950813 
2411	 0.154124522116941 
2412	 0.154172199859881 
2413	 0.153682874820854 
2414	 0.153259458877597 
2415	 0.153093077666724 
2416	 0.152652754336094 
2417	 0.152431326206074 
2418	 0.152516152148915 
2419	 0.15248551500215 
2420	 0.152706198841199 
2421	 0.153367584506422 
2422	 0.153587442374471 
2423	 0.153383146871812 
2424	 0.153596869886217 
2425	 0.153581848785078 
2426	 0.153647511124293 
2427	 0.154139923722851 
2428	 0.153964709674158 
2429	 0.153586105666431 
2430	 0.153422342981264 
2431	 0.1532143860716 
2432	 0.153113716378982 
2433	 0.152978285868196 
2434	 0.152963718331134 
2435	 0.152878515772241 
2436	 0.15275188575842 
2437	 0.152407599653025 
2438	 0.151465787785252 
2439	 0.150832736960753 
2440	 0.150469388684904 
2441	 0.150349850296091 
2442	 0.150738366173939 
2443	 0.150357622189101 
2444	 0.149520739994749 
2445	 0.149254217296758 
2446	 0.149077162958092 
2447	 0.149128962884227 
2448	 0.149330343140257 
2449	 0.14884902011211 
2450	 0.147838235841165 
2451	 0.147066348227758 
2452	 0.146856172529691 
2453	 0.146737223454142 
2454	 0.14678460484842 
2455	 0.146923142338879 
2456	 0.146475696418024 
2457	 0.14592069555245 
2458	 0.145377562735564 
2459	 0.145274461706377 
2460	 0.145405399274332 
2461	 0.144606241037803 
2462	 0.143404646703993 
2463	 0.142200634286943 
2464	 0.141117475434583 
2465	 0.141102155161529 
2466	 0.141940503287911 
2467	 0.142521375504183 
2468	 0.14269451612826 
2469	 0.142259616678092 
2470	 0.141514935689678 
2471	 0.141106117169178 
2472	 0.14104814588477 
2473	 0.141160634731387 
2474	 0.141894583560552 
2475	 0.1425502107156 
2476	 0.142304291332189 
2477	 0.142214112476786 
2478	 0.141638640406897 
2479	 0.140813884016418 
2480	 0.13979060751029 
2481	 0.139465576650585 
2482	 0.139632524051276 
2483	 0.139506774345118 
2484	 0.139078545874598 
2485	 0.139447565079407 
2486	 0.141096026838017 
2487	 0.141753501639502 
2488	 0.141387992416036 
2489	 0.140273834332361 
2490	 0.139232356187567 
2491	 0.138960599474769 
2492	 0.140419818158638 
2493	 0.142449828460612 
2494	 0.142027031729194 
2495	 0.14226870125828 
2496	 0.143479863886409 
2497	 0.143557969457434 
2498	 0.145123802914995 
2499	 0.146337695854433 
2500	 0.14662170640277 
