Wavelength	ProbetaAcolman00035.asd
350	 0.226624230370939 
351	 0.225074792078429 
352	 0.219022626053529 
353	 0.206558196498659 
354	 0.203919192307746 
355	 0.195464915778702 
356	 0.189544365903237 
357	 0.191474908494814 
358	 0.187989700838814 
359	 0.184780499649221 
360	 0.18209697355969 
361	 0.178459062169981 
362	 0.178311991630033 
363	 0.178598399319783 
364	 0.177578623836081 
365	 0.175598736006702 
366	 0.175395814094572 
367	 0.176902285307447 
368	 0.178737582172226 
369	 0.177621851557192 
370	 0.17825902507228 
371	 0.179970500552124 
372	 0.179851371548379 
373	 0.180103073115795 
374	 0.180781108033674 
375	 0.181895031297811 
376	 0.183686652065177 
377	 0.185405335419677 
378	 0.186619594703081 
379	 0.187287959020154 
380	 0.188160594051666 
381	 0.189182847639583 
382	 0.190420274690485 
383	 0.19205447915294 
384	 0.1949034696598 
385	 0.196368778397372 
386	 0.196122617212542 
387	 0.197411324729965 
388	 0.198369182326397 
389	 0.199761622903657 
390	 0.202094024265914 
391	 0.202764002214018 
392	 0.203402383598161 
393	 0.204453051768974 
394	 0.205540803942483 
395	 0.206847921121121 
396	 0.207722939268043 
397	 0.208127368985503 
398	 0.209154016175453 
399	 0.209888492834674 
400	 0.21057569329458 
401	 0.21157827105716 
402	 0.212351943230024 
403	 0.213303797570245 
404	 0.214298689926364 
405	 0.214877924928067 
406	 0.216101874667447 
407	 0.217184579447598 
408	 0.217867954184225 
409	 0.219434188481569 
410	 0.220718767032095 
411	 0.221840105562681 
412	 0.223165365821311 
413	 0.224109371435465 
414	 0.225128953565538 
415	 0.226286896271162 
416	 0.227261484625392 
417	 0.228101298802045 
418	 0.229037507687176 
419	 0.230079582268145 
420	 0.230657094331059 
421	 0.231140237181903 
422	 0.231696783170499 
423	 0.232340179073256 
424	 0.23269720357797 
425	 0.232794257570858 
426	 0.23287457038508 
427	 0.233369443507017 
428	 0.233598845408583 
429	 0.233867140639034 
430	 0.234417943127281 
431	 0.23460220448705 
432	 0.235010992010301 
433	 0.23553954814568 
434	 0.23576891654185 
435	 0.23628842279591 
436	 0.236996995267735 
437	 0.237701277206577 
438	 0.238189802943917 
439	 0.23871510078826 
440	 0.23928266586639 
441	 0.239847160079771 
442	 0.240492306824329 
443	 0.241040944708431 
444	 0.241411229887816 
445	 0.24162824114567 
446	 0.241970636260542 
447	 0.242249315276448 
448	 0.242330943011274 
449	 0.242389510365005 
450	 0.242310961328059 
451	 0.242061894397041 
452	 0.241661137785233 
453	 0.241216317614781 
454	 0.240790457351499 
455	 0.240389975638648 
456	 0.239958975254027 
457	 0.239300715989977 
458	 0.238536030299043 
459	 0.237811442116042 
460	 0.237127120808344 
461	 0.236272991701068 
462	 0.235277914510899 
463	 0.234301172410146 
464	 0.23332185109679 
465	 0.232247997681839 
466	 0.231044928090741 
467	 0.229774975984385 
468	 0.228481360523749 
469	 0.227117088563672 
470	 0.225633001326332 
471	 0.224087647800267 
472	 0.222548351336113 
473	 0.220995208802387 
474	 0.219356034768051 
475	 0.217878167577857 
476	 0.216351762103248 
477	 0.214672869686502 
478	 0.213136132652489 
479	 0.211653557175777 
480	 0.210251237732327 
481	 0.208967187742722 
482	 0.207688630770826 
483	 0.206479681309421 
484	 0.205387541758169 
485	 0.204426090141758 
486	 0.203502500225973 
487	 0.202658747987396 
488	 0.201929416856293 
489	 0.20121099040112 
490	 0.200593759920997 
491	 0.200097403377652 
492	 0.199691858142583 
493	 0.19932425882548 
494	 0.198983874604177 
495	 0.198640535224429 
496	 0.198214751587178 
497	 0.197844023290827 
498	 0.197529475329435 
499	 0.197192017922063 
500	 0.19662207677929 
501	 0.195959493944401 
502	 0.195332589683619 
503	 0.194821523585644 
504	 0.194055886866364 
505	 0.193147109996148 
506	 0.192235454098174 
507	 0.191302437719886 
508	 0.190312802648424 
509	 0.189253397738186 
510	 0.188142720044173 
511	 0.187118296047083 
512	 0.186120759576643 
513	 0.185156041560981 
514	 0.184335497418233 
515	 0.183538976609436 
516	 0.182796943315606 
517	 0.182183389178572 
518	 0.181783614875229 
519	 0.181510811785196 
520	 0.181356297895987 
521	 0.181371146063761 
522	 0.181584565475794 
523	 0.182008685399617 
524	 0.182611924913982 
525	 0.18327456611997 
526	 0.184165007944824 
527	 0.185288210568172 
528	 0.186570131458918 
529	 0.18787560535169 
530	 0.189280296309097 
531	 0.190821105671256 
532	 0.192473228341901 
533	 0.194114885815164 
534	 0.195784416134131 
535	 0.197490592736403 
536	 0.199048472893396 
537	 0.200566726421666 
538	 0.201974452835898 
539	 0.203127224728216 
540	 0.204172920625262 
541	 0.205051367773982 
542	 0.205699932501312 
543	 0.206087239477172 
544	 0.206233716322564 
545	 0.206152182265363 
546	 0.20585480715072 
547	 0.205351506929465 
548	 0.204661058003854 
549	 0.203815384143282 
550	 0.202860461436184 
551	 0.201865957417368 
552	 0.200850618079363 
553	 0.199834173535038 
554	 0.198865930600715 
555	 0.19798979754586 
556	 0.197261535108178 
557	 0.196736109975086 
558	 0.196427289157258 
559	 0.196368902611961 
560	 0.196584468770576 
561	 0.197083050609768 
562	 0.197851327110491 
563	 0.198921792225302 
564	 0.200324355269552 
565	 0.202022444380607 
566	 0.204000295431535 
567	 0.206316101835764 
568	 0.209078822863501 
569	 0.212270123465364 
570	 0.215883834714369 
571	 0.219942918530865 
572	 0.224539980240858 
573	 0.229403647171788 
574	 0.234492115473233 
575	 0.239875412872842 
576	 0.245587419549996 
577	 0.251567275956718 
578	 0.257787108269999 
579	 0.264272146079371 
580	 0.271137003937006 
581	 0.278259730241762 
582	 0.285535280439149 
583	 0.293072518621011 
584	 0.300832767831192 
585	 0.308752238005728 
586	 0.316757611868386 
587	 0.324820675570757 
588	 0.332910455286963 
589	 0.341024030408466 
590	 0.349169977035285 
591	 0.357407116241804 
592	 0.365714668879826 
593	 0.374007292250931 
594	 0.382086248229245 
595	 0.390057763374643 
596	 0.397892534533315 
597	 0.405451220767026 
598	 0.41284730113819 
599	 0.420056819627919 
600	 0.427039594489876 
601	 0.43378359257604 
602	 0.440260127346534 
603	 0.446505831071054 
604	 0.452556646186225 
605	 0.458269477996366 
606	 0.463650885125234 
607	 0.468757206176623 
608	 0.473680545023399 
609	 0.478237460617189 
610	 0.482512214802464 
611	 0.486619019232257 
612	 0.490516631812947 
613	 0.494218909159612 
614	 0.497710375343024 
615	 0.500969340079106 
616	 0.504111106996813 
617	 0.507113861766841 
618	 0.50995135671966 
619	 0.512629715021225 
620	 0.515137210739889 
621	 0.517513910119259 
622	 0.519810560850873 
623	 0.522033670015928 
624	 0.524155630893214 
625	 0.526177324507341 
626	 0.528123714371506 
627	 0.529960954513737 
628	 0.5316965962326 
629	 0.533350896682382 
630	 0.534944773236304 
631	 0.536454136480045 
632	 0.537902768837006 
633	 0.539329035348835 
634	 0.540713725502728 
635	 0.542027175083225 
636	 0.543260443922709 
637	 0.544431291885346 
638	 0.545606459333833 
639	 0.546786028506215 
640	 0.547922995005563 
641	 0.548887201255266 
642	 0.549833504684285 
643	 0.550807298041619 
644	 0.551772555651981 
645	 0.552626962713116 
646	 0.553500836429514 
647	 0.554427446612374 
648	 0.555236532843527 
649	 0.555974250958789 
650	 0.556700630754366 
651	 0.557456843579486 
652	 0.558168375459351 
653	 0.558886150624165 
654	 0.559620014711645 
655	 0.560337981240088 
656	 0.560976911824241 
657	 0.561545592907402 
658	 0.56210029239414 
659	 0.562778381367127 
660	 0.563410989417432 
661	 0.563965904045621 
662	 0.564480793849619 
663	 0.565065228489292 
664	 0.565619414370434 
665	 0.566123513873928 
666	 0.566650392273946 
667	 0.567188314359819 
668	 0.56771388677772 
669	 0.568225097376515 
670	 0.568801289408127 
671	 0.569267609471434 
672	 0.569681886817595 
673	 0.57017808382534 
674	 0.570588153323059 
675	 0.571012528512831 
676	 0.571473288502251 
677	 0.571873177551732 
678	 0.57235468431472 
679	 0.572763392688621 
680	 0.573000526103264 
681	 0.573335922061376 
682	 0.573730311110813 
683	 0.574150867250856 
684	 0.57455957865302 
685	 0.574884807742373 
686	 0.575222003875422 
687	 0.575621485792617 
688	 0.576047557958332 
689	 0.576360150079101 
690	 0.576633995325816 
691	 0.576962954252439 
692	 0.577275144990548 
693	 0.57764215863907 
694	 0.578002801965071 
695	 0.578237962502752 
696	 0.578534511833129 
697	 0.578825418616015 
698	 0.579090691094944 
699	 0.579435609998888 
700	 0.579725327417494 
701	 0.580002229594403 
702	 0.580327454734014 
703	 0.580623461371759 
704	 0.580948585310829 
705	 0.581276551568513 
706	 0.581527330213946 
707	 0.581721406628086 
708	 0.581913389913532 
709	 0.582148671667634 
710	 0.582452708024435 
711	 0.582721747483547 
712	 0.582988209712671 
713	 0.583291222344853 
714	 0.583509143971289 
715	 0.583771391916845 
716	 0.584084020030557 
717	 0.584362383886297 
718	 0.584621459881953 
719	 0.584870574050795 
720	 0.585094065874055 
721	 0.585231676952541 
722	 0.585357033055181 
723	 0.585516666757377 
724	 0.585737843180292 
725	 0.586017643763148 
726	 0.586302343297691 
727	 0.586537571023797 
728	 0.586689978723836 
729	 0.586904999803088 
730	 0.58715210220179 
731	 0.58738360413335 
732	 0.587568272325215 
733	 0.587701378376681 
734	 0.58780515951319 
735	 0.587928400524867 
736	 0.588180910635122 
737	 0.588445692968658 
738	 0.588641692786091 
739	 0.588744592250653 
740	 0.588971140980104 
741	 0.589169083333423 
742	 0.589283030808162 
743	 0.589471667745249 
744	 0.589637715102961 
745	 0.589798892620747 
746	 0.589987937757651 
747	 0.590184945489191 
748	 0.590388548771777 
749	 0.59061175032219 
750	 0.590863662220586 
751	 0.591062975281531 
752	 0.591234915854916 
753	 0.59137509823134 
754	 0.59142801407683 
755	 0.591510473128817 
756	 0.591690856007142 
757	 0.591963222945878 
758	 0.592164915811415 
759	 0.592330286081156 
760	 0.592503191058704 
761	 0.592714780032638 
762	 0.592865987752917 
763	 0.593012949401776 
764	 0.59315858610398 
765	 0.593244957139018 
766	 0.593428157083994 
767	 0.593643286208346 
768	 0.5938216227966 
769	 0.593996650010034 
770	 0.594105999163987 
771	 0.594211137005942 
772	 0.594389888017456 
773	 0.594555356062559 
774	 0.594731937634706 
775	 0.594882656140852 
776	 0.594936999452967 
777	 0.595072337721906 
778	 0.595196344633192 
779	 0.59528385480677 
780	 0.595491698688229 
781	 0.59569155117546 
782	 0.595854145122215 
783	 0.595989542171097 
784	 0.596136902970482 
785	 0.59628571207312 
786	 0.596425040472594 
787	 0.596545454299036 
788	 0.596648316445114 
789	 0.596769175323073 
790	 0.596906163410409 
791	 0.597012387360831 
792	 0.597129676970144 
793	 0.59727111662915 
794	 0.597431238777023 
795	 0.597576767828461 
796	 0.597718724853235 
797	 0.597839571036702 
798	 0.597927254593216 
799	 0.59804495935504 
800	 0.598117867756492 
801	 0.598195296769656 
802	 0.598398281532488 
803	 0.598512500573147 
804	 0.598595104366141 
805	 0.598702838703516 
806	 0.598833431177734 
807	 0.598980026523871 
808	 0.599110857864373 
809	 0.599213041327794 
810	 0.599341693318781 
811	 0.599507352204565 
812	 0.599661763742628 
813	 0.599753042663957 
814	 0.599878678802592 
815	 0.600001547743682 
816	 0.600095425418102 
817	 0.600158204893683 
818	 0.600264698194617 
819	 0.600371306219052 
820	 0.600450578564654 
821	 0.600533724090938 
822	 0.600578321571838 
823	 0.600695931743941 
824	 0.600926251304156 
825	 0.60096327351193 
826	 0.601016504836343 
827	 0.601091508962658 
828	 0.601119218624024 
829	 0.601184249307946 
830	 0.601262161033521 
831	 0.60134249438005 
832	 0.601426022454246 
833	 0.60142297018549 
834	 0.601444774057219 
835	 0.601550540659058 
836	 0.601672446459845 
837	 0.601727417811393 
838	 0.601767950478455 
839	 0.601862089763719 
840	 0.602018905094367 
841	 0.602139417958222 
842	 0.602175130831903 
843	 0.602142386533232 
844	 0.60222473329409 
845	 0.602310370045931 
846	 0.602370706365835 
847	 0.602447386971684 
848	 0.602529998870954 
849	 0.602635553773397 
850	 0.602738268953518 
851	 0.602763306136362 
852	 0.602819233022147 
853	 0.602893480850688 
854	 0.60296179574866 
855	 0.603025764528065 
856	 0.603208592215939 
857	 0.603359409419147 
858	 0.603333969795541 
859	 0.603341850968845 
860	 0.603380612994688 
861	 0.603434315065999 
862	 0.60347502177132 
863	 0.603464820570077 
864	 0.60351691094756 
865	 0.603624138087484 
866	 0.603675220866446 
867	 0.603718341865284 
868	 0.603750652127638 
869	 0.603788478441563 
870	 0.60387824906239 
871	 0.603985743305188 
872	 0.604014865061704 
873	 0.603966499632025 
874	 0.604080967541801 
875	 0.604152727568024 
876	 0.604181634744708 
877	 0.604220458940476 
878	 0.604260463432947 
879	 0.604333182370234 
880	 0.604397649922752 
881	 0.604392685455848 
882	 0.604350246553275 
883	 0.60432991155031 
884	 0.604377369734626 
885	 0.604503989380833 
886	 0.604588354722499 
887	 0.604593296286391 
888	 0.60453156449535 
889	 0.604462523177476 
890	 0.60447687043263 
891	 0.604542485718671 
892	 0.604579462322225 
893	 0.604478206401689 
894	 0.604475635902197 
895	 0.604563715224486 
896	 0.604653376551398 
897	 0.604625828574641 
898	 0.604624229002162 
899	 0.604693229013149 
900	 0.604793498977742 
901	 0.604718763439988 
902	 0.604703839311146 
903	 0.604716511388986 
904	 0.60464525249969 
905	 0.604754255049754 
906	 0.60484162099047 
907	 0.604837287696193 
908	 0.604801384781581 
909	 0.604820241551118 
910	 0.604902134737679 
911	 0.605015592486842 
912	 0.605103690604273 
913	 0.605172125793485 
914	 0.605226881913781 
915	 0.605270633929137 
916	 0.605302167183472 
917	 0.605410242408968 
918	 0.605473557731159 
919	 0.605453927801883 
920	 0.605542243167127 
921	 0.605636826351647 
922	 0.605705333210108 
923	 0.605724065800574 
924	 0.605641555673032 
925	 0.605619678819963 
926	 0.605563597821494 
927	 0.605421150337588 
928	 0.605595227486658 
929	 0.605642003116574 
930	 0.605555266423808 
931	 0.605520222468475 
932	 0.60562600995578 
933	 0.605784368496685 
934	 0.605914834638905 
935	 0.605990564037612 
936	 0.606218966051816 
937	 0.606305117367228 
938	 0.606279115888413 
939	 0.606366571784645 
940	 0.606320169407566 
941	 0.606332646296567 
942	 0.606382805076623 
943	 0.606281707655821 
944	 0.606327450279373 
945	 0.606418048952168 
946	 0.606509012864002 
947	 0.606652050563577 
948	 0.606708513094565 
949	 0.60665128980393 
950	 0.60654003234118 
951	 0.606504777741256 
952	 0.606482908469787 
953	 0.606486151963429 
954	 0.606487792988315 
955	 0.606399482933818 
956	 0.606359259115539 
957	 0.606297528870886 
958	 0.606186751237342 
959	 0.60614142470477 
960	 0.606087906881053 
961	 0.605924973218703 
962	 0.605711391506905 
963	 0.605808937799634 
964	 0.605970220536941 
965	 0.606056288827057 
966	 0.606040718130538 
967	 0.606072350320678 
968	 0.606241108510304 
969	 0.606468236690752 
970	 0.60664029401399 
971	 0.60670661921729 
972	 0.606788322515358 
973	 0.606928184787765 
974	 0.607092086663131 
975	 0.607118606000074 
976	 0.60717173611995 
977	 0.607162638916877 
978	 0.607021224132479 
979	 0.606963251626469 
980	 0.607096774758267 
981	 0.60727857277558 
982	 0.607370375861896 
983	 0.607591774851232 
984	 0.607589909748215 
985	 0.60754585061151 
986	 0.607693768703907 
987	 0.607777552090523 
988	 0.607756668768351 
989	 0.607779294918935 
990	 0.607927213619107 
991	 0.607807196210573 
992	 0.607732956388205 
993	 0.607671299430791 
994	 0.607585419485223 
995	 0.607898204999966 
996	 0.60793473579481 
997	 0.607869258944253 
998	 0.608048874046046 
999	 0.608288421992743 
1000	 0.608251179507753 
1001	 0.595034683882936 
1002	 0.59499737487015 
1003	 0.595058121342516 
1004	 0.595041699947698 
1005	 0.594976620861745 
1006	 0.594943966009647 
1007	 0.594897946222292 
1008	 0.594854202059721 
1009	 0.594803044019298 
1010	 0.594803495373043 
1011	 0.594839210144262 
1012	 0.59485808369466 
1013	 0.594940260749371 
1014	 0.594956440153189 
1015	 0.594948600266645 
1016	 0.594884163445244 
1017	 0.59477666396582 
1018	 0.594676124494749 
1019	 0.594648014362064 
1020	 0.594620909081308 
1021	 0.594587219337944 
1022	 0.594559180603444 
1023	 0.594577455774302 
1024	 0.594617546956319 
1025	 0.594654060717699 
1026	 0.594774283542488 
1027	 0.594840619402709 
1028	 0.594911723022257 
1029	 0.594826365950553 
1030	 0.594793933246738 
1031	 0.594819953407389 
1032	 0.594771853438134 
1033	 0.594800411751637 
1034	 0.594904936789336 
1035	 0.594862270445502 
1036	 0.594858903745697 
1037	 0.594884148579673 
1038	 0.594879238426853 
1039	 0.594812102327814 
1040	 0.594837149577845 
1041	 0.594901743833722 
1042	 0.594908811505998 
1043	 0.59491561794173 
1044	 0.594980121711289 
1045	 0.594942641964626 
1046	 0.594942879994423 
1047	 0.594995772728711 
1048	 0.594966465842256 
1049	 0.594951140086151 
1050	 0.595005777483693 
1051	 0.595044310739075 
1052	 0.595054978921255 
1053	 0.59503837906767 
1054	 0.594978895508755 
1055	 0.594931223500236 
1056	 0.594846905452137 
1057	 0.594829990255304 
1058	 0.594849818482757 
1059	 0.594871411579469 
1060	 0.59491779057023 
1061	 0.594938488893595 
1062	 0.594978699227165 
1063	 0.594993839518284 
1064	 0.595039906796868 
1065	 0.595082880626221 
1066	 0.595028035731185 
1067	 0.595056843723236 
1068	 0.595116476450989 
1069	 0.595102612657259 
1070	 0.595117896638789 
1071	 0.595161713266171 
1072	 0.595234933499872 
1073	 0.595275767330628 
1074	 0.595303080324049 
1075	 0.595377655922733 
1076	 0.595410002265454 
1077	 0.595375793971071 
1078	 0.595405303983987 
1079	 0.595479211401821 
1080	 0.595493568890612 
1081	 0.595477133765649 
1082	 0.595500915506218 
1083	 0.595520037620374 
1084	 0.595524504244627 
1085	 0.59558528114016 
1086	 0.595662604934501 
1087	 0.595766954410338 
1088	 0.595834661165744 
1089	 0.595896762717858 
1090	 0.595936521196338 
1091	 0.595901852220641 
1092	 0.59586030495557 
1093	 0.595857258138967 
1094	 0.595833134355481 
1095	 0.59581252657899 
1096	 0.595808198545046 
1097	 0.595768916261011 
1098	 0.595786655052873 
1099	 0.595875374417152 
1100	 0.595900369162954 
1101	 0.595903628561246 
1102	 0.595930867424859 
1103	 0.595928314369099 
1104	 0.595876329814787 
1105	 0.595843659454939 
1106	 0.59586007322072 
1107	 0.595831237026552 
1108	 0.595760762430837 
1109	 0.595731770170318 
1110	 0.595697824414981 
1111	 0.595669203203738 
1112	 0.595689459260373 
1113	 0.595697080849015 
1114	 0.595698475691437 
1115	 0.595682877574063 
1116	 0.595640535088262 
1117	 0.595649606013578 
1118	 0.595621326130834 
1119	 0.59553742440047 
1120	 0.595505906750439 
1121	 0.595514630772574 
1122	 0.595466272750968 
1123	 0.595391483474295 
1124	 0.595389216537419 
1125	 0.595257936061417 
1126	 0.595096788077868 
1127	 0.594993595898187 
1128	 0.594858727419617 
1129	 0.594777777024126 
1130	 0.594679294076239 
1131	 0.594509754606903 
1132	 0.594373829285321 
1133	 0.594220879319648 
1134	 0.594032679026442 
1135	 0.593858006270933 
1136	 0.593677117696187 
1137	 0.593527086772819 
1138	 0.593413441483734 
1139	 0.593261024889785 
1140	 0.593140853146106 
1141	 0.592956137659293 
1142	 0.592674200260507 
1143	 0.59241990520756 
1144	 0.592227892416906 
1145	 0.59204134801369 
1146	 0.591886148635404 
1147	 0.59171520750308 
1148	 0.591503881665332 
1149	 0.59126938338574 
1150	 0.591027362369759 
1151	 0.590781076714533 
1152	 0.590545683991209 
1153	 0.590332551739714 
1154	 0.590067130752266 
1155	 0.589771269622273 
1156	 0.589496124989793 
1157	 0.589177548845749 
1158	 0.588875257989318 
1159	 0.588596580189964 
1160	 0.588348237992589 
1161	 0.588052083330381 
1162	 0.587739390946057 
1163	 0.587435422903268 
1164	 0.587116879051898 
1165	 0.586771288255912 
1166	 0.586479131282077 
1167	 0.586242770767424 
1168	 0.585987458342251 
1169	 0.585741060869534 
1170	 0.58552240105407 
1171	 0.585299361281383 
1172	 0.585060558283714 
1173	 0.584848058687187 
1174	 0.584657831642434 
1175	 0.58447279975968 
1176	 0.584306186268092 
1177	 0.584125211711355 
1178	 0.583957752558466 
1179	 0.583775520064786 
1180	 0.583574340075575 
1181	 0.583347009766036 
1182	 0.583137964023257 
1183	 0.582931125686287 
1184	 0.58272753881873 
1185	 0.582523483622168 
1186	 0.582304782161572 
1187	 0.582057111505691 
1188	 0.581865708726931 
1189	 0.581687204998492 
1190	 0.581517382802769 
1191	 0.581389607239679 
1192	 0.581241101934593 
1193	 0.581057248918059 
1194	 0.580921069443614 
1195	 0.58080680822432 
1196	 0.580711713349379 
1197	 0.580632223892369 
1198	 0.580602020837416 
1199	 0.580556657718764 
1200	 0.580529716986975 
1201	 0.580502376302272 
1202	 0.580465227782137 
1203	 0.580468755952657 
1204	 0.580451036043069 
1205	 0.580421407065782 
1206	 0.580371250279892 
1207	 0.580364514753007 
1208	 0.580360505774098 
1209	 0.580362610055398 
1210	 0.580382387565425 
1211	 0.580435842009778 
1212	 0.580481246892151 
1213	 0.580572670149211 
1214	 0.580709869137589 
1215	 0.580874633776858 
1216	 0.58107431996641 
1217	 0.581271213134017 
1218	 0.58146121642314 
1219	 0.581755383329228 
1220	 0.582018782845632 
1221	 0.582260972821094 
1222	 0.582525004480586 
1223	 0.582778218545449 
1224	 0.583075004465839 
1225	 0.583398222037579 
1226	 0.583693572054269 
1227	 0.584027626166826 
1228	 0.584310776214773 
1229	 0.584548570273193 
1230	 0.584790182452967 
1231	 0.585027729252217 
1232	 0.585253117618562 
1233	 0.585445524207714 
1234	 0.585655365500623 
1235	 0.585903418004789 
1236	 0.586084860459229 
1237	 0.586240696997737 
1238	 0.586380762020048 
1239	 0.586465531182174 
1240	 0.586554440913482 
1241	 0.5866316235663 
1242	 0.586707811756125 
1243	 0.586793902432284 
1244	 0.586864344577972 
1245	 0.586965031716933 
1246	 0.587077643779308 
1247	 0.587217628742423 
1248	 0.587405111919496 
1249	 0.587531530939351 
1250	 0.587684162498302 
1251	 0.587769221687758 
1252	 0.587787501767451 
1253	 0.587804697449259 
1254	 0.587773578789969 
1255	 0.587769598689316 
1256	 0.587762980791427 
1257	 0.587752268849667 
1258	 0.587769501418486 
1259	 0.587752308165462 
1260	 0.587707697970912 
1261	 0.587655090390446 
1262	 0.587572228890559 
1263	 0.587503182592382 
1264	 0.587426526707992 
1265	 0.587320173170776 
1266	 0.587285653933623 
1267	 0.58729409159305 
1268	 0.587268647490992 
1269	 0.587293231438684 
1270	 0.5872458159193 
1271	 0.587125673003064 
1272	 0.587051734171825 
1273	 0.586987469520008 
1274	 0.586903701149444 
1275	 0.586815224191292 
1276	 0.586734231600008 
1277	 0.586625343623199 
1278	 0.586547204064802 
1279	 0.586487299090896 
1280	 0.586445342023017 
1281	 0.58642764704388 
1282	 0.586405699897857 
1283	 0.586398876593713 
1284	 0.586395749147406 
1285	 0.586395354716477 
1286	 0.586390276005151 
1287	 0.586399219985436 
1288	 0.586416318342157 
1289	 0.586447265062164 
1290	 0.586511134225994 
1291	 0.586512278022454 
1292	 0.586497315302031 
1293	 0.58648564940148 
1294	 0.586437839608937 
1295	 0.58639639679982 
1296	 0.586369198949733 
1297	 0.586331779336618 
1298	 0.586263646665181 
1299	 0.58621670303048 
1300	 0.586178014109314 
1301	 0.586153191870665 
1302	 0.586155526065985 
1303	 0.586126842344355 
1304	 0.586103614058267 
1305	 0.586065380035607 
1306	 0.585972061320096 
1307	 0.585918126652121 
1308	 0.585920734326059 
1309	 0.585867831390545 
1310	 0.585802251956511 
1311	 0.585728264623881 
1312	 0.58566802890701 
1313	 0.585564828997723 
1314	 0.585521121570918 
1315	 0.585538502432583 
1316	 0.585503770630606 
1317	 0.585461706143985 
1318	 0.585416321753687 
1319	 0.585368783748174 
1320	 0.585292337721838 
1321	 0.585200957042294 
1322	 0.585108254433883 
1323	 0.584981967525221 
1324	 0.584874979715364 
1325	 0.584771951560795 
1326	 0.584681425260843 
1327	 0.584617068214904 
1328	 0.584519863218807 
1329	 0.58441542197675 
1330	 0.584311474135007 
1331	 0.584205063388717 
1332	 0.584066106553357 
1333	 0.583902318521595 
1334	 0.583753373742177 
1335	 0.583598222135044 
1336	 0.583412431486399 
1337	 0.583244822905181 
1338	 0.583108187456911 
1339	 0.582928484370029 
1340	 0.582723281979101 
1341	 0.58251874098283 
1342	 0.582289086681065 
1343	 0.582095804168732 
1344	 0.581917709507235 
1345	 0.581722891742394 
1346	 0.581555133850453 
1347	 0.58134919852047 
1348	 0.581112487948759 
1349	 0.580872249733471 
1350	 0.580621571141587 
1351	 0.580358490025052 
1352	 0.580053009092311 
1353	 0.579790456653984 
1354	 0.57955512978997 
1355	 0.57929888150485 
1356	 0.579071756939729 
1357	 0.57881035864504 
1358	 0.578498283471497 
1359	 0.578202224477602 
1360	 0.577905896887466 
1361	 0.577611100851344 
1362	 0.577249318215 
1363	 0.576951182165032 
1364	 0.576672074028137 
1365	 0.576398834190695 
1366	 0.576125857137243 
1367	 0.575913231350765 
1368	 0.575635498249682 
1369	 0.575344787160147 
1370	 0.574983926413155 
1371	 0.574596320558225 
1372	 0.574171729983485 
1373	 0.573661260251561 
1374	 0.573182297491901 
1375	 0.572694728194292 
1376	 0.572199686521307 
1377	 0.571687410815587 
1378	 0.571176500899172 
1379	 0.570643593046969 
1380	 0.570135700527957 
1381	 0.569628992570412 
1382	 0.569126717450545 
1383	 0.568672801469401 
1384	 0.568160141513842 
1385	 0.567636927526358 
1386	 0.567081284540475 
1387	 0.56649164065026 
1388	 0.565887922417704 
1389	 0.565261961024965 
1390	 0.564627481629947 
1391	 0.563986296907868 
1392	 0.56330101921857 
1393	 0.562665991759359 
1394	 0.562011148100567 
1395	 0.561328854930009 
1396	 0.560642709112615 
1397	 0.559939686010161 
1398	 0.559212857844819 
1399	 0.558460837812795 
1400	 0.557721426436095 
1401	 0.556899193831968 
1402	 0.556069337202627 
1403	 0.555083920293474 
1404	 0.55406244236762 
1405	 0.552865646190375 
1406	 0.551538147102549 
1407	 0.550078773717531 
1408	 0.548404001892443 
1409	 0.546784331398202 
1410	 0.544894214278844 
1411	 0.5433712530429 
1412	 0.541807131754 
1413	 0.540711567061741 
1414	 0.53985983384848 
1415	 0.539376284425995 
1416	 0.539356495957067 
1417	 0.539428100987522 
1418	 0.539958335876288 
1419	 0.540325800386023 
1420	 0.540857903038143 
1421	 0.541212501572234 
1422	 0.54150511256104 
1423	 0.541673139782084 
1424	 0.541714997998439 
1425	 0.541668430030286 
1426	 0.541551648144607 
1427	 0.541372543378971 
1428	 0.541182877207858 
1429	 0.54097153000292 
1430	 0.540756790165066 
1431	 0.540511976901694 
1432	 0.540290178627672 
1433	 0.540063835021208 
1434	 0.539856285736417 
1435	 0.539664334672148 
1436	 0.539465457250619 
1437	 0.539278235945633 
1438	 0.539078404000692 
1439	 0.538856155803042 
1440	 0.538666994201297 
1441	 0.538483254037152 
1442	 0.538315251850149 
1443	 0.538167230026605 
1444	 0.538033526504909 
1445	 0.537918454832302 
1446	 0.537799819493464 
1447	 0.537710460431304 
1448	 0.537588676815968 
1449	 0.537426853465339 
1450	 0.537308983089298 
1451	 0.537205826486974 
1452	 0.537097142372631 
1453	 0.537008178861344 
1454	 0.536922908239816 
1455	 0.536830851254556 
1456	 0.53674183194489 
1457	 0.536648476464689 
1458	 0.536586571311295 
1459	 0.536545957550262 
1460	 0.536498305514501 
1461	 0.53649498154707 
1462	 0.536461240479292 
1463	 0.536384534571063 
1464	 0.536323806048452 
1465	 0.536263597168575 
1466	 0.536205203068168 
1467	 0.536122790980845 
1468	 0.536089991169512 
1469	 0.536091538942466 
1470	 0.536084773000283 
1471	 0.536096254516018 
1472	 0.536157562350576 
1473	 0.536163592435355 
1474	 0.536146856137215 
1475	 0.536132380890615 
1476	 0.536097424993694 
1477	 0.536087547666821 
1478	 0.536096633123946 
1479	 0.536068748753533 
1480	 0.536062571323983 
1481	 0.535973963441017 
1482	 0.535815595833485 
1483	 0.535681861206525 
1484	 0.535507157951388 
1485	 0.53535844534236 
1486	 0.53521459488821 
1487	 0.535087542512577 
1488	 0.534972907886025 
1489	 0.534848693966783 
1490	 0.534736696342074 
1491	 0.534622867416852 
1492	 0.534469195242897 
1493	 0.534380042163181 
1494	 0.534332076326732 
1495	 0.534288745477815 
1496	 0.534274029948083 
1497	 0.534275355719997 
1498	 0.534292474029069 
1499	 0.53431523354704 
1500	 0.534380057755654 
1501	 0.53441107082645 
1502	 0.53440918171861 
1503	 0.53444085488332 
1504	 0.534470243473199 
1505	 0.53451962171347 
1506	 0.534588951945284 
1507	 0.534678932681246 
1508	 0.534771770641574 
1509	 0.534901743631067 
1510	 0.535116792005761 
1511	 0.535263961841124 
1512	 0.535380417755975 
1513	 0.535516615924223 
1514	 0.535632105343465 
1515	 0.535741397014092 
1516	 0.53586601112606 
1517	 0.535992764988849 
1518	 0.536087110889367 
1519	 0.536201868685317 
1520	 0.536353824181656 
1521	 0.536494472429415 
1522	 0.536615163041561 
1523	 0.536736438785821 
1524	 0.536865256424136 
1525	 0.536986227109763 
1526	 0.537123864731609 
1527	 0.537273678197195 
1528	 0.537431013719724 
1529	 0.537591468105102 
1530	 0.537762550437019 
1531	 0.537944302636086 
1532	 0.538141753921284 
1533	 0.538354697772721 
1534	 0.53855960772781 
1535	 0.538755295296747 
1536	 0.539013099082422 
1537	 0.53930281915264 
1538	 0.539566370428098 
1539	 0.539905555912989 
1540	 0.540119741698567 
1541	 0.540240930859014 
1542	 0.540405125060344 
1543	 0.540532035061325 
1544	 0.540684176431633 
1545	 0.540867558411391 
1546	 0.541009569723214 
1547	 0.54112527714851 
1548	 0.541255489880152 
1549	 0.541393418455457 
1550	 0.541489211631979 
1551	 0.541577361044082 
1552	 0.541643183732846 
1553	 0.541649423203249 
1554	 0.541697758408446 
1555	 0.541769878603322 
1556	 0.541813721051454 
1557	 0.541869642762212 
1558	 0.541882316456772 
1559	 0.541847229454637 
1560	 0.541837402812934 
1561	 0.54178610040365 
1562	 0.54180452694303 
1563	 0.541880526806273 
1564	 0.541925423730112 
1565	 0.541983968897112 
1566	 0.542053283566607 
1567	 0.542127666193411 
1568	 0.542178611715026 
1569	 0.542233649696059 
1570	 0.54229355122241 
1571	 0.542312875540517 
1572	 0.542372655889251 
1573	 0.542473897873601 
1574	 0.542566574712929 
1575	 0.542664436583963 
1576	 0.542763248664897 
1577	 0.542868273548544 
1578	 0.542976111106987 
1579	 0.543080659853074 
1580	 0.543196767671721 
1581	 0.543341096572469 
1582	 0.543452240494482 
1583	 0.543544542618107 
1584	 0.54364861586676 
1585	 0.543751533610593 
1586	 0.543834429372204 
1587	 0.543920053283831 
1588	 0.543993988868202 
1589	 0.544035054037156 
1590	 0.544085178929102 
1591	 0.544123118496526 
1592	 0.544191570110058 
1593	 0.54425343336053 
1594	 0.544354153893105 
1595	 0.544511936994919 
1596	 0.544650676790753 
1597	 0.544800649546983 
1598	 0.544951163820845 
1599	 0.545109148022863 
1600	 0.545249299277255 
1601	 0.545379802025947 
1602	 0.545517885601109 
1603	 0.545667381254956 
1604	 0.545777029935301 
1605	 0.545877676522889 
1606	 0.54596588093595 
1607	 0.546002339284741 
1608	 0.546060590688158 
1609	 0.546137725261766 
1610	 0.546194691591499 
1611	 0.546236637424509 
1612	 0.546280818499361 
1613	 0.546327627497973 
1614	 0.546358710506074 
1615	 0.546363174160266 
1616	 0.546398325340884 
1617	 0.546436360759726 
1618	 0.546477196918589 
1619	 0.546563197870779 
1620	 0.546613199398631 
1621	 0.546632134042789 
1622	 0.546656369566737 
1623	 0.546661520097451 
1624	 0.54668278263652 
1625	 0.546706409358622 
1626	 0.546744522448126 
1627	 0.546827444562272 
1628	 0.546852280510894 
1629	 0.546853072207863 
1630	 0.546850745832038 
1631	 0.546792530542447 
1632	 0.546768109905549 
1633	 0.546775874814382 
1634	 0.546764737058403 
1635	 0.54674928165956 
1636	 0.546739422958981 
1637	 0.546730753080788 
1638	 0.546706212917221 
1639	 0.546686107871751 
1640	 0.546647361610231 
1641	 0.546559040063378 
1642	 0.546516287651863 
1643	 0.546510880343161 
1644	 0.546476580261549 
1645	 0.546472707472382 
1646	 0.546421179727493 
1647	 0.546321177192337 
1648	 0.546211912797608 
1649	 0.546093867121687 
1650	 0.545942566634009 
1651	 0.545742863797491 
1652	 0.545564792143115 
1653	 0.54537670983643 
1654	 0.545177467496338 
1655	 0.544969902121013 
1656	 0.544786799135198 
1657	 0.544605761534663 
1658	 0.54441372387082 
1659	 0.544265843898385 
1660	 0.544063852439964 
1661	 0.543830239129991 
1662	 0.543564932749285 
1663	 0.543260380805134 
1664	 0.542940580668111 
1665	 0.542598920066632 
1666	 0.542222801151451 
1667	 0.541844732595002 
1668	 0.541403979025946 
1669	 0.540909514216512 
1670	 0.540376311887096 
1671	 0.539770654197352 
1672	 0.539167650366297 
1673	 0.538557538497975 
1674	 0.537897626775194 
1675	 0.537215728186651 
1676	 0.536502458705779 
1677	 0.535728243214104 
1678	 0.534947879943899 
1679	 0.534139754382351 
1680	 0.533321945603647 
1681	 0.532511577308256 
1682	 0.531636019213622 
1683	 0.530713149863097 
1684	 0.529812488990343 
1685	 0.528868850567488 
1686	 0.527931939317692 
1687	 0.527027029774514 
1688	 0.526058092710682 
1689	 0.525003330105748 
1690	 0.524034389977718 
1691	 0.5230769446967 
1692	 0.522158623926169 
1693	 0.5213116909656 
1694	 0.520439863226077 
1695	 0.519575543523741 
1696	 0.518678496604571 
1697	 0.517778897682299 
1698	 0.516851574750087 
1699	 0.515917550468325 
1700	 0.514943968841147 
1701	 0.513928572718922 
1702	 0.512943706786981 
1703	 0.511918324110717 
1704	 0.510915548453744 
1705	 0.509932276054149 
1706	 0.508910844545316 
1707	 0.507990195322357 
1708	 0.507121178042826 
1709	 0.506305773466729 
1710	 0.505555538239224 
1711	 0.504749884480843 
1712	 0.503917188363379 
1713	 0.50308927789265 
1714	 0.502219896424911 
1715	 0.501385595075982 
1716	 0.500650394301995 
1717	 0.499922465478615 
1718	 0.499118768444105 
1719	 0.498324793365737 
1720	 0.497522891409579 
1721	 0.496684944591552 
1722	 0.495979181975895 
1723	 0.495414021191251 
1724	 0.49484349652097 
1725	 0.494385815653703 
1726	 0.494076463485804 
1727	 0.493809762263608 
1728	 0.493692252503987 
1729	 0.493692082241125 
1730	 0.493791753536087 
1731	 0.494043229415135 
1732	 0.494449835062298 
1733	 0.494967239223383 
1734	 0.495605857394521 
1735	 0.496326175026866 
1736	 0.497050768776738 
1737	 0.497844437498624 
1738	 0.498636595562371 
1739	 0.499347001260512 
1740	 0.500075539608558 
1741	 0.500671227802557 
1742	 0.501171151254013 
1743	 0.501618418618201 
1744	 0.501966005739936 
1745	 0.502292989702263 
1746	 0.50261204337189 
1747	 0.502770124787368 
1748	 0.502777941051106 
1749	 0.502832611870547 
1750	 0.502828903377381 
1751	 0.502768054656646 
1752	 0.502709189578079 
1753	 0.502609745129312 
1754	 0.502348617882352 
1755	 0.502210203114609 
1756	 0.50217839338636 
1757	 0.502010196563151 
1758	 0.501872346761224 
1759	 0.501672499614617 
1760	 0.501536295541707 
1761	 0.50152130563978 
1762	 0.501560603849343 
1763	 0.501752784946882 
1764	 0.501985185003784 
1765	 0.502255093373576 
1766	 0.502577150758167 
1767	 0.502917629126701 
1768	 0.503375667674037 
1769	 0.503902865889722 
1770	 0.504463218998222 
1771	 0.505109426555723 
1772	 0.50562591970642 
1773	 0.50611524515517 
1774	 0.506752194752647 
1775	 0.507308296189999 
1776	 0.507860236582477 
1777	 0.508413827567387 
1778	 0.508799222877294 
1779	 0.509105789388959 
1780	 0.509419390706549 
1781	 0.509672071203988 
1782	 0.50987990242949 
1783	 0.510131097193148 
1784	 0.510382933124408 
1785	 0.510612929452447 
1786	 0.51083464156693 
1787	 0.511043290891333 
1788	 0.511192485783981 
1789	 0.511352184292395 
1790	 0.511413938168687 
1791	 0.511323122769503 
1792	 0.511330697198704 
1793	 0.511319492687773 
1794	 0.511408559944972 
1795	 0.511524567168331 
1796	 0.511587602580261 
1797	 0.511632029744252 
1798	 0.511608514267774 
1799	 0.511645322249845 
1800	 0.511740619689194 
1801	 0.516910539050478 
1802	 0.51722985718917 
1803	 0.517496001943887 
1804	 0.517706908734008 
1805	 0.517953378286325 
1806	 0.518199580626523 
1807	 0.518482443095203 
1808	 0.518712339896091 
1809	 0.518944785011199 
1810	 0.519129712897204 
1811	 0.519277609886989 
1812	 0.519389246977996 
1813	 0.519449408725885 
1814	 0.519515551656823 
1815	 0.51955261284253 
1816	 0.519661234895635 
1817	 0.519751586500892 
1818	 0.519860472177998 
1819	 0.519960951622527 
1820	 0.520072441864424 
1821	 0.520150119778554 
1822	 0.52017370632645 
1823	 0.52031256571545 
1824	 0.520384747556461 
1825	 0.52044262363582 
1826	 0.520546568652222 
1827	 0.520694703919638 
1828	 0.520805391333706 
1829	 0.520951320266563 
1830	 0.521032317650967 
1831	 0.521086365322918 
1832	 0.521093292003009 
1833	 0.521093260326001 
1834	 0.521148172951653 
1835	 0.521240063528945 
1836	 0.521355748716181 
1837	 0.521415779652524 
1838	 0.521451818663791 
1839	 0.521483792049034 
1840	 0.521449681956586 
1841	 0.521479329487269 
1842	 0.521518604706142 
1843	 0.521618501122039 
1844	 0.521736476503487 
1845	 0.521878093963993 
1846	 0.522018952223911 
1847	 0.522104664174288 
1848	 0.522194992377407 
1849	 0.522278456066465 
1850	 0.522349219048207 
1851	 0.52239999098421 
1852	 0.522468263603441 
1853	 0.522519236776882 
1854	 0.522500652121916 
1855	 0.522490852082944 
1856	 0.522458079407845 
1857	 0.522413562783027 
1858	 0.522338033034292 
1859	 0.522229922683551 
1860	 0.522097552894707 
1861	 0.521933609283228 
1862	 0.521742903617868 
1863	 0.521511961728051 
1864	 0.52123841609696 
1865	 0.52095240174977 
1866	 0.520622710310959 
1867	 0.520261411961713 
1868	 0.519906737354845 
1869	 0.519495122787017 
1870	 0.519013443592024 
1871	 0.518479827788252 
1872	 0.51791888390031 
1873	 0.517293516001318 
1874	 0.516622962284098 
1875	 0.515968932396547 
1876	 0.515209361425443 
1877	 0.514482071178342 
1878	 0.513794679086704 
1879	 0.513071953978335 
1880	 0.512395873900664 
1881	 0.511627161035456 
1882	 0.510832619232536 
1883	 0.509897884286891 
1884	 0.508896213614241 
1885	 0.507823619406876 
1886	 0.506714166271343 
1887	 0.505503850012503 
1888	 0.504203441919186 
1889	 0.502920722929034 
1890	 0.501490727797986 
1891	 0.500017903300671 
1892	 0.49849430571801 
1893	 0.496862809993006 
1894	 0.495071158233954 
1895	 0.493352271044631 
1896	 0.491547881462981 
1897	 0.489693921675495 
1898	 0.488020688203795 
1899	 0.486137647978936 
1900	 0.484220240249305 
1901	 0.482305368212908 
1902	 0.48010703223364 
1903	 0.477951230828256 
1904	 0.475846081328605 
1905	 0.473697972040079 
1906	 0.471629325117165 
1907	 0.469786495263049 
1908	 0.467899617385405 
1909	 0.466111857762407 
1910	 0.464347261897029 
1911	 0.462453295386371 
1912	 0.460696690882335 
1913	 0.458887936166861 
1914	 0.457059306635456 
1915	 0.455359478031404 
1916	 0.453772754605385 
1917	 0.452124456364576 
1918	 0.450593175755007 
1919	 0.449149411462976 
1920	 0.447629809637978 
1921	 0.446181290085669 
1922	 0.444714684427844 
1923	 0.443213913198206 
1924	 0.441819722552711 
1925	 0.440475995286501 
1926	 0.439222957610317 
1927	 0.438117238717236 
1928	 0.436977248070635 
1929	 0.435867096212458 
1930	 0.43480820734941 
1931	 0.43375311044909 
1932	 0.432700494673669 
1933	 0.431779503776137 
1934	 0.430901318773665 
1935	 0.43014575458929 
1936	 0.429462168920397 
1937	 0.428780023076469 
1938	 0.428143768467656 
1939	 0.427583921717166 
1940	 0.427052910164101 
1941	 0.426557375081301 
1942	 0.426186334212275 
1943	 0.425865830526679 
1944	 0.425528781658427 
1945	 0.42529810129514 
1946	 0.425157519006253 
1947	 0.424992269777993 
1948	 0.424941411715913 
1949	 0.424979724818723 
1950	 0.42504152682897 
1951	 0.425167409045974 
1952	 0.425333888478888 
1953	 0.425550348685605 
1954	 0.425772631966882 
1955	 0.426076194728152 
1956	 0.426423703247866 
1957	 0.426799096421646 
1958	 0.427168631578968 
1959	 0.427543772478865 
1960	 0.427907631458052 
1961	 0.428298392639788 
1962	 0.42872002777142 
1963	 0.429153369103286 
1964	 0.429618799998654 
1965	 0.430036166990049 
1966	 0.430453783570466 
1967	 0.430853072359745 
1968	 0.431183536514705 
1969	 0.431579056860209 
1970	 0.432031772906641 
1971	 0.432496983766439 
1972	 0.433031430319793 
1973	 0.433544019137008 
1974	 0.433996610842699 
1975	 0.434381943027783 
1976	 0.434819035113436 
1977	 0.43522123172414 
1978	 0.435658019764657 
1979	 0.436129013946004 
1980	 0.43662886863203 
1981	 0.437123718556558 
1982	 0.437605397830678 
1983	 0.438076644730502 
1984	 0.438601608299284 
1985	 0.439045224457664 
1986	 0.439456657412321 
1987	 0.439924060434278 
1988	 0.440405556356692 
1989	 0.440884351821836 
1990	 0.44142400656543 
1991	 0.441912092562694 
1992	 0.442393478171763 
1993	 0.442831013642492 
1994	 0.443234502270857 
1995	 0.443636219949418 
1996	 0.44404371844896 
1997	 0.444479206920579 
1998	 0.444908146874761 
1999	 0.445332918407009 
2000	 0.445796708835695 
2001	 0.446279853494986 
2002	 0.44676929592731 
2003	 0.447306838843876 
2004	 0.447824225310698 
2005	 0.448318655054022 
2006	 0.448827795070494 
2007	 0.449354326359202 
2008	 0.449875222607044 
2009	 0.450404842333962 
2010	 0.450914938511951 
2011	 0.451342935618428 
2012	 0.451807469726611 
2013	 0.452200372593113 
2014	 0.452529326612698 
2015	 0.452834415700981 
2016	 0.453117219386328 
2017	 0.453344687820898 
2018	 0.453519979107655 
2019	 0.453685101300581 
2020	 0.453812849937396 
2021	 0.453927620003462 
2022	 0.45395092428411 
2023	 0.453987368736375 
2024	 0.454059592382891 
2025	 0.453988484467191 
2026	 0.453907455339589 
2027	 0.453838961937722 
2028	 0.453678757326851 
2029	 0.453382478566789 
2030	 0.453147632510128 
2031	 0.452913488807413 
2032	 0.452638339340526 
2033	 0.452346829680547 
2034	 0.452048569122619 
2035	 0.451712723407874 
2036	 0.451354443686813 
2037	 0.451019305578161 
2038	 0.450742413462911 
2039	 0.450561768622068 
2040	 0.450468448960693 
2041	 0.450355771949675 
2042	 0.450327741920153 
2043	 0.450287740420157 
2044	 0.450217830550233 
2045	 0.450205310394648 
2046	 0.450221575745651 
2047	 0.450293789732206 
2048	 0.450390267713763 
2049	 0.450550412177331 
2050	 0.450794591465459 
2051	 0.451048867282913 
2052	 0.451367846539672 
2053	 0.451738230411154 
2054	 0.452095678003338 
2055	 0.452481014109478 
2056	 0.452906630080183 
2057	 0.453364753352106 
2058	 0.453794502129201 
2059	 0.454229106193213 
2060	 0.454709889540434 
2061	 0.455191965481021 
2062	 0.455679209711982 
2063	 0.456218686272841 
2064	 0.456773921161088 
2065	 0.457320757823196 
2066	 0.457883313761156 
2067	 0.458489100130435 
2068	 0.459008485664146 
2069	 0.459519977199582 
2070	 0.459996543980912 
2071	 0.460427500513516 
2072	 0.460808262415059 
2073	 0.461222641113333 
2074	 0.461560723249486 
2075	 0.461977715609791 
2076	 0.462459805931586 
2077	 0.46293606482707 
2078	 0.463463489922616 
2079	 0.463950228495054 
2080	 0.464469487299805 
2081	 0.464913886272041 
2082	 0.465342758313914 
2083	 0.465660898534182 
2084	 0.465962769414296 
2085	 0.466169681362873 
2086	 0.466410724292109 
2087	 0.466612885681335 
2088	 0.466841360254181 
2089	 0.467102317250991 
2090	 0.467312252328103 
2091	 0.46750995212888 
2092	 0.467669936471626 
2093	 0.467764561265336 
2094	 0.467888581314768 
2095	 0.467981996645625 
2096	 0.468116251163008 
2097	 0.468321602779361 
2098	 0.468472937278805 
2099	 0.468501936979851 
2100	 0.468580881173754 
2101	 0.468613290270329 
2102	 0.468549611119503 
2103	 0.468521353496913 
2104	 0.468513875172639 
2105	 0.468494246321318 
2106	 0.468423268620812 
2107	 0.46841186339567 
2108	 0.468445962688518 
2109	 0.468472803422562 
2110	 0.468530049328101 
2111	 0.468551844705088 
2112	 0.468584311638748 
2113	 0.468582233112632 
2114	 0.468562690304382 
2115	 0.468497862138364 
2116	 0.468391932810444 
2117	 0.468253296365359 
2118	 0.468152864814192 
2119	 0.468031563765247 
2120	 0.46791164761739 
2121	 0.46782472298658 
2122	 0.467716511220065 
2123	 0.467552818675964 
2124	 0.467455459525195 
2125	 0.46742385353703 
2126	 0.467331654459009 
2127	 0.467250103749534 
2128	 0.46713223801745 
2129	 0.466960363186675 
2130	 0.466801021837553 
2131	 0.466665431032328 
2132	 0.466467902108838 
2133	 0.466265408415354 
2134	 0.46599900874173 
2135	 0.465632544581743 
2136	 0.465286742299257 
2137	 0.464867327024279 
2138	 0.464389250119262 
2139	 0.463884887215195 
2140	 0.463311010852146 
2141	 0.46276762525979 
2142	 0.46224178301337 
2143	 0.461628575004684 
2144	 0.460957844656531 
2145	 0.460313930433007 
2146	 0.459581730279451 
2147	 0.458916925184176 
2148	 0.458317285237126 
2149	 0.457717744836854 
2150	 0.457134861156868 
2151	 0.456541539715111 
2152	 0.455969108313053 
2153	 0.455388618567381 
2154	 0.454760578005445 
2155	 0.454101232249751 
2156	 0.453471259140917 
2157	 0.452849162492569 
2158	 0.452162094273939 
2159	 0.451461594379297 
2160	 0.450752740340909 
2161	 0.449981032244875 
2162	 0.449260593582006 
2163	 0.448570718880881 
2164	 0.447860681020712 
2165	 0.447140793724095 
2166	 0.446417655210236 
2167	 0.445697754994854 
2168	 0.444968310421775 
2169	 0.444185554888173 
2170	 0.443483956069144 
2171	 0.442726534803639 
2172	 0.442137428466334 
2173	 0.441696474783218 
2174	 0.441282461681668 
2175	 0.440910449135866 
2176	 0.440655092879114 
2177	 0.440381186206297 
2178	 0.440103326834956 
2179	 0.43990262352352 
2180	 0.439764223433019 
2181	 0.439651950733693 
2182	 0.439609456058689 
2183	 0.439532563755291 
2184	 0.43947984242711 
2185	 0.439429222957039 
2186	 0.439351998789529 
2187	 0.439315537835527 
2188	 0.439289305154285 
2189	 0.439319669067862 
2190	 0.439438704762312 
2191	 0.439489989766081 
2192	 0.439552356449369 
2193	 0.439620114427973 
2194	 0.439640948779639 
2195	 0.439671850971897 
2196	 0.439739719073337 
2197	 0.439777740691738 
2198	 0.439852150058717 
2199	 0.43992532655434 
2200	 0.439972508028391 
2201	 0.440012057204346 
2202	 0.44012998284742 
2203	 0.440258670046101 
2204	 0.44036924466612 
2205	 0.440599936037235 
2206	 0.440672780990327 
2207	 0.440606247346644 
2208	 0.440601214225742 
2209	 0.440573356278835 
2210	 0.440556406406273 
2211	 0.440530348494722 
2212	 0.440534105452866 
2213	 0.440546512001382 
2214	 0.440553700526011 
2215	 0.440635147982197 
2216	 0.440612773377254 
2217	 0.440481535345398 
2218	 0.44044880462978 
2219	 0.440410508682375 
2220	 0.440370848256094 
2221	 0.440389656673473 
2222	 0.440423258313195 
2223	 0.440354282633875 
2224	 0.4402665676368 
2225	 0.440263075351441 
2226	 0.440212485668223 
2227	 0.440110058399011 
2228	 0.440015179297332 
2229	 0.439837336386004 
2230	 0.439565819108684 
2231	 0.439282142868601 
2232	 0.439001599667712 
2233	 0.438606153617298 
2234	 0.438142880151604 
2235	 0.437601416469256 
2236	 0.436934665437296 
2237	 0.436297882115747 
2238	 0.435659003341465 
2239	 0.434904463618502 
2240	 0.434087178624235 
2241	 0.433226044602708 
2242	 0.432355914119253 
2243	 0.43128040132212 
2244	 0.430072279533224 
2245	 0.428843697587861 
2246	 0.427357215099683 
2247	 0.425978431480282 
2248	 0.424721705230097 
2249	 0.423348969338001 
2250	 0.421913683738525 
2251	 0.420508591653648 
2252	 0.418892583967328 
2253	 0.417274860222981 
2254	 0.415613030438608 
2255	 0.413842633519829 
2256	 0.412250544957471 
2257	 0.410614601756309 
2258	 0.409075604716752 
2259	 0.407676413164712 
2260	 0.406117422928779 
2261	 0.404542361422035 
2262	 0.402944933944833 
2263	 0.401192384398863 
2264	 0.399597985892636 
2265	 0.398047213016276 
2266	 0.396606698427279 
2267	 0.395263280029662 
2268	 0.393951479329318 
2269	 0.392742840050214 
2270	 0.391501931872809 
2271	 0.390259325835257 
2272	 0.389072581982913 
2273	 0.387852248745576 
2274	 0.386782011595794 
2275	 0.385896170288362 
2276	 0.384915147731912 
2277	 0.384032700470339 
2278	 0.383055675035407 
2279	 0.381971121086261 
2280	 0.380878839638362 
2281	 0.379701652253742 
2282	 0.378618900608692 
2283	 0.37759774364346 
2284	 0.376483176210981 
2285	 0.375489060552585 
2286	 0.374640970805729 
2287	 0.373547602023653 
2288	 0.37253625088736 
2289	 0.371523267963667 
2290	 0.370381261393478 
2291	 0.369375087142901 
2292	 0.368260451190738 
2293	 0.367071401737498 
2294	 0.365953280015251 
2295	 0.364637295912384 
2296	 0.363242694450691 
2297	 0.361856491649382 
2298	 0.360284150508494 
2299	 0.35890547828109 
2300	 0.357691567815369 
2301	 0.356337063883627 
2302	 0.354895685195261 
2303	 0.353706960176192 
2304	 0.352463565600437 
2305	 0.351474456459427 
2306	 0.350775944204756 
2307	 0.350107347011611 
2308	 0.349329048213545 
2309	 0.34914363726759 
2310	 0.349306795968 
2311	 0.349701385386429 
2312	 0.350594678250576 
2313	 0.351551132597766 
2314	 0.352688212128629 
2315	 0.353960348576685 
2316	 0.355570975824832 
2317	 0.357081376230473 
2318	 0.358832633309639 
2319	 0.360253852988339 
2320	 0.361583703966294 
2321	 0.362697966223917 
2322	 0.363501930507048 
2323	 0.364278029997977 
2324	 0.36507269601068 
2325	 0.365571822648791 
2326	 0.36585761038997 
2327	 0.366023555143297 
2328	 0.365793882613673 
2329	 0.36564403535981 
2330	 0.36548166445704 
2331	 0.365210431808462 
2332	 0.364891705235714 
2333	 0.36458234587199 
2334	 0.364089823458752 
2335	 0.363473792542448 
2336	 0.36257226604859 
2337	 0.361526904604162 
2338	 0.360489649092235 
2339	 0.359410221306745 
2340	 0.358367746149965 
2341	 0.357140575952762 
2342	 0.356098648360366 
2343	 0.355020407030952 
2344	 0.353793576879087 
2345	 0.35297595750034 
2346	 0.35205839447429 
2347	 0.350983395826173 
2348	 0.350389216103426 
2349	 0.350182326254785 
2350	 0.350006223257959 
2351	 0.350107945265012 
2352	 0.350569463161512 
2353	 0.351169773504454 
2354	 0.351864297353789 
2355	 0.352857258293554 
2356	 0.354077475289759 
2357	 0.355298177944056 
2358	 0.356676851333074 
2359	 0.357967971261424 
2360	 0.358791086270374 
2361	 0.35945334096406 
2362	 0.36004300356459 
2363	 0.360529157551291 
2364	 0.361087085096119 
2365	 0.361440435414612 
2366	 0.361657596345001 
2367	 0.362070125238956 
2368	 0.362478983726369 
2369	 0.362747377307371 
2370	 0.362950899690587 
2371	 0.362957274287462 
2372	 0.36293963361821 
2373	 0.363102865721244 
2374	 0.363373512006841 
2375	 0.363638668924415 
2376	 0.363609864383275 
2377	 0.363419796837908 
2378	 0.363180464626931 
2379	 0.362887380305364 
2380	 0.362756140656873 
2381	 0.362720383702477 
2382	 0.362852542694699 
2383	 0.363319099642925 
2384	 0.363320122325329 
2385	 0.36323842071894 
2386	 0.363181963152571 
2387	 0.36272619731613 
2388	 0.362626727262592 
2389	 0.362895152750568 
2390	 0.362959319059769 
2391	 0.363016851116767 
2392	 0.362921919864426 
2393	 0.362611455938925 
2394	 0.362556731352172 
2395	 0.362588299941858 
2396	 0.362485192113593 
2397	 0.362475635438748 
2398	 0.362408564065131 
2399	 0.362069498964709 
2400	 0.362187603744709 
2401	 0.362754865366207 
2402	 0.363242920198784 
2403	 0.363010495337944 
2404	 0.362466826491664 
2405	 0.362212748085494 
2406	 0.361879965410062 
2407	 0.361845914680765 
2408	 0.362149337596559 
2409	 0.362119212838085 
2410	 0.362184488442735 
2411	 0.362531561399063 
2412	 0.36257931096816 
2413	 0.362389647419535 
2414	 0.362279573760082 
2415	 0.361990420607318 
2416	 0.36159782224628 
2417	 0.361730725469007 
2418	 0.361508329718524 
2419	 0.361193709656676 
2420	 0.361237300657092 
2421	 0.360887472092062 
2422	 0.360863409079963 
2423	 0.361143210999822 
2424	 0.361451941991895 
2425	 0.361686775423671 
2426	 0.36181358225231 
2427	 0.361962202933747 
2428	 0.361547558032423 
2429	 0.361086122029031 
2430	 0.360684855174505 
2431	 0.360102473042644 
2432	 0.360172701047557 
2433	 0.360456301776366 
2434	 0.360283010308457 
2435	 0.360008529257962 
2436	 0.35957692103826 
2437	 0.358920364447379 
2438	 0.358697234092193 
2439	 0.358727052631663 
2440	 0.358408881775267 
2441	 0.358310567286968 
2442	 0.358027381438176 
2443	 0.357445438720228 
2444	 0.357359261168779 
2445	 0.357193791678954 
2446	 0.356888878983372 
2447	 0.356736026919689 
2448	 0.356448503765395 
2449	 0.35568876508767 
2450	 0.354595364133734 
2451	 0.353856242219474 
2452	 0.353146769591062 
2453	 0.352420153893652 
2454	 0.352653219569345 
2455	 0.352782445289121 
2456	 0.351858874128042 
2457	 0.351338476437244 
2458	 0.350404829649656 
2459	 0.349102709894672 
2460	 0.34897786419321 
2461	 0.34831288247352 
2462	 0.347653556491476 
2463	 0.347839616747347 
2464	 0.347527306311774 
2465	 0.347852977435405 
2466	 0.348226640528384 
2467	 0.347744141095682 
2468	 0.347357086223922 
2469	 0.346248620247311 
2470	 0.345694169254631 
2471	 0.345714753779767 
2472	 0.345456479178533 
2473	 0.345516085083256 
2474	 0.344427487532138 
2475	 0.34309533096029 
2476	 0.34216696192381 
2477	 0.342028436178745 
2478	 0.342934242021582 
2479	 0.343097841219993 
2480	 0.342408858220744 
2481	 0.342355133047863 
2482	 0.342198193203935 
2483	 0.342937433967095 
2484	 0.344239859534532 
2485	 0.344443305836416 
2486	 0.344096099592957 
2487	 0.343705861328931 
2488	 0.342503173312024 
2489	 0.342101127526105 
2490	 0.341690852946713 
2491	 0.341043801380532 
2492	 0.340262868506626 
2493	 0.339419418476239 
2494	 0.339879458500512 
2495	 0.34054461320272 
2496	 0.341746553101728 
2497	 0.342372901662465 
2498	 0.3416208097166 
2499	 0.341716540381331 
2500	 0.340743377659684 
