Wavelength	ProbetaAcolman00031.asd
350	 0.308031701134915 
351	 0.295484262993958 
352	 0.284607120427132 
353	 0.279054521309989 
354	 0.27034942945711 
355	 0.265992907359165 
356	 0.263042280550461 
357	 0.258692392193624 
358	 0.254215098093217 
359	 0.254815918675851 
360	 0.257120636556952 
361	 0.255317801928794 
362	 0.253398763295698 
363	 0.253516361632122 
364	 0.255029387242878 
365	 0.254544872759423 
366	 0.258251818488044 
367	 0.2630724285397 
368	 0.265328545542749 
369	 0.26449303525152 
370	 0.267248849240195 
371	 0.271979377037942 
372	 0.273747529842259 
373	 0.276392612243276 
374	 0.279048118125809 
375	 0.281987591323787 
376	 0.287483238737407 
377	 0.291690711838153 
378	 0.294687663970917 
379	 0.297651736725718 
380	 0.301889018660778 
381	 0.306874300413264 
382	 0.311147447368728 
383	 0.313410253905498 
384	 0.317720689537298 
385	 0.321967140566709 
386	 0.325136105046651 
387	 0.328689923779131 
388	 0.332570746838992 
389	 0.33679755766983 
390	 0.34114320122284 
391	 0.344800953077472 
392	 0.347878922683879 
393	 0.350908039598536 
394	 0.3545981195646 
395	 0.35898945777156 
396	 0.363190057603987 
397	 0.366800088221434 
398	 0.370381547708693 
399	 0.373873809216688 
400	 0.377504662723848 
401	 0.381436878980417 
402	 0.385309734551036 
403	 0.389356796744403 
404	 0.39335868162776 
405	 0.396849635068537 
406	 0.400822694718251 
407	 0.404840161020192 
408	 0.408688614997817 
409	 0.412986007186055 
410	 0.417158335778243 
411	 0.421179837325185 
412	 0.425213964153083 
413	 0.42947034300437 
414	 0.433198097463706 
415	 0.436523118185697 
416	 0.440340529525172 
417	 0.44411949815847 
418	 0.447782668356459 
419	 0.451288010236152 
420	 0.454495679297116 
421	 0.457679490907094 
422	 0.460842773039318 
423	 0.463873095998714 
424	 0.466647270998135 
425	 0.469417269490217 
426	 0.472246258023986 
427	 0.47494918094504 
428	 0.477555491052306 
429	 0.480178553131451 
430	 0.482798015309719 
431	 0.484912669616536 
432	 0.487073907107545 
433	 0.489321993333199 
434	 0.49142011967047 
435	 0.493532193319755 
436	 0.495644760330587 
437	 0.497671680228216 
438	 0.499448216169809 
439	 0.50107681446358 
440	 0.502617506696807 
441	 0.5041526827942 
442	 0.505916992131963 
443	 0.50754935692725 
444	 0.508962423647905 
445	 0.510309807618258 
446	 0.511542581900648 
447	 0.512692766279509 
448	 0.513771231101496 
449	 0.514704427905411 
450	 0.515703016300842 
451	 0.51664873805266 
452	 0.517346707113218 
453	 0.517997147340801 
454	 0.518721423326914 
455	 0.519481373019856 
456	 0.520076632727738 
457	 0.520635654696019 
458	 0.521172108122476 
459	 0.521677613451362 
460	 0.522147761521724 
461	 0.52262650442943 
462	 0.523097215203482 
463	 0.523520903369545 
464	 0.523988435809759 
465	 0.524456228338953 
466	 0.524872105400506 
467	 0.525193520808695 
468	 0.525514822416801 
469	 0.52588036821772 
470	 0.526288311031905 
471	 0.52662629425691 
472	 0.526979920365336 
473	 0.527330785118033 
474	 0.5275883144968 
475	 0.52796988703911 
476	 0.528392734549362 
477	 0.528763168258365 
478	 0.529072042514556 
479	 0.529384203560855 
480	 0.529733735235684 
481	 0.530131583558974 
482	 0.530535551012816 
483	 0.530976203282437 
484	 0.531413738815549 
485	 0.531726197643196 
486	 0.532237136423425 
487	 0.532818604779702 
488	 0.533293436936103 
489	 0.533679874321671 
490	 0.534092756628642 
491	 0.534564887318647 
492	 0.535073061413646 
493	 0.535597423644471 
494	 0.536160904179477 
495	 0.53676045505294 
496	 0.537341574672743 
497	 0.537899865155969 
498	 0.53848024255762 
499	 0.539110630126843 
500	 0.539664353204581 
501	 0.540203120187029 
502	 0.540800936548507 
503	 0.541518879304087 
504	 0.542102025605919 
505	 0.542654779277172 
506	 0.54326767234821 
507	 0.543832550306682 
508	 0.544334895132139 
509	 0.544826984701406 
510	 0.545381935281016 
511	 0.54597388471151 
512	 0.54650832530659 
513	 0.546955899024619 
514	 0.547377655071513 
515	 0.54785684610844 
516	 0.548282115787826 
517	 0.548572777972854 
518	 0.548947199750082 
519	 0.549298206035049 
520	 0.549532560303259 
521	 0.549600069097375 
522	 0.549795370256935 
523	 0.550009745278443 
524	 0.550135598291196 
525	 0.55018505731477 
526	 0.55022295740614 
527	 0.550265559784028 
528	 0.550296627445352 
529	 0.550242548594719 
530	 0.550168214204398 
531	 0.550070627411113 
532	 0.549868177483016 
533	 0.549657687358832 
534	 0.549444083452574 
535	 0.549213220580098 
536	 0.548956778182204 
537	 0.548708919042979 
538	 0.548430864629821 
539	 0.548056566739108 
540	 0.547677332781401 
541	 0.547304337149717 
542	 0.546922075327186 
543	 0.546487130967898 
544	 0.546075251650885 
545	 0.545667444572135 
546	 0.545228046662908 
547	 0.544785571947786 
548	 0.544377057247083 
549	 0.544018876495348 
550	 0.543707081602052 
551	 0.543416920258397 
552	 0.543117690140026 
553	 0.542795644389344 
554	 0.542477144631502 
555	 0.542160854964842 
556	 0.541874248732545 
557	 0.541644543061285 
558	 0.541423248189537 
559	 0.541071079067258 
560	 0.540555027576771 
561	 0.539994984080725 
562	 0.539324209475271 
563	 0.538606508339078 
564	 0.537932121022587 
565	 0.537350805707765 
566	 0.536887054441642 
567	 0.536546259115256 
568	 0.536311593589529 
569	 0.536118165315052 
570	 0.535935604703646 
571	 0.535732524240508 
572	 0.535459515524614 
573	 0.535140381656021 
574	 0.534717675888215 
575	 0.534108084302915 
576	 0.533257683647264 
577	 0.532383623181685 
578	 0.531627918970958 
579	 0.531021581351006 
580	 0.530628429080513 
581	 0.530296745389499 
582	 0.529882221290451 
583	 0.529432783966433 
584	 0.52897114425983 
585	 0.528570560663137 
586	 0.528326962591855 
587	 0.528274897181795 
588	 0.528243611390532 
589	 0.528094169396508 
590	 0.527781717834542 
591	 0.52731755907834 
592	 0.526821111419866 
593	 0.526388793004155 
594	 0.525851726587417 
595	 0.525314470856783 
596	 0.524830397427399 
597	 0.524394939418306 
598	 0.523967753104696 
599	 0.523550591405858 
600	 0.523152797961333 
601	 0.522776493769858 
602	 0.522451055695737 
603	 0.522183626311628 
604	 0.521950977619528 
605	 0.521618499522769 
606	 0.521287648739922 
607	 0.521000891679095 
608	 0.520701377617089 
609	 0.520396186233123 
610	 0.520121630384437 
611	 0.519906379944339 
612	 0.519737919702961 
613	 0.519529023254076 
614	 0.519256738492133 
615	 0.518956412960662 
616	 0.518759608272586 
617	 0.518591219182902 
618	 0.518400603979686 
619	 0.518237647440588 
620	 0.518022833294444 
621	 0.517833951074717 
622	 0.517752746266371 
623	 0.517611154250498 
624	 0.517465380786249 
625	 0.517356499079856 
626	 0.517299322977022 
627	 0.517263765962363 
628	 0.517229427118949 
629	 0.517190015413878 
630	 0.517171848791276 
631	 0.517116112848688 
632	 0.517081036125716 
633	 0.517154622055508 
634	 0.517237245593081 
635	 0.51729430054118 
636	 0.517313019933924 
637	 0.517301167756478 
638	 0.51738002202686 
639	 0.517506862730395 
640	 0.517611476885767 
641	 0.51768500077612 
642	 0.517774838457593 
643	 0.517915953378611 
644	 0.518122344164664 
645	 0.518310065205821 
646	 0.518502427911877 
647	 0.51870146253961 
648	 0.518846751913775 
649	 0.519063007209673 
650	 0.519327284395876 
651	 0.519578595645043 
652	 0.519816290996553 
653	 0.520048062836379 
654	 0.5202925822571 
655	 0.520571693570699 
656	 0.520836494762681 
657	 0.521101446555239 
658	 0.521394506801665 
659	 0.521760045986576 
660	 0.522059342951459 
661	 0.522360019598082 
662	 0.522763113574425 
663	 0.523082244033604 
664	 0.523424177468944 
665	 0.523824171904877 
666	 0.524227079748044 
667	 0.524612506547765 
668	 0.524964114198018 
669	 0.525298132633351 
670	 0.525710196960534 
671	 0.52612203731174 
672	 0.526515994312668 
673	 0.526904282997522 
674	 0.527292258677637 
675	 0.52771463605772 
676	 0.528164087952634 
677	 0.528581579788777 
678	 0.529017508158495 
679	 0.529482985619114 
680	 0.529963022867458 
681	 0.530388668976383 
682	 0.530856407420035 
683	 0.531345137117678 
684	 0.531781147342544 
685	 0.532243813207034 
686	 0.532685285707614 
687	 0.533102867291708 
688	 0.533574436588797 
689	 0.534110673721627 
690	 0.534611448920595 
691	 0.53501623155824 
692	 0.535504692472501 
693	 0.536015750873013 
694	 0.536488575263044 
695	 0.536884966727873 
696	 0.537361657983008 
697	 0.537836633361138 
698	 0.538271783699938 
699	 0.538746276814638 
700	 0.539194050674651 
701	 0.539628074786687 
702	 0.540066193245705 
703	 0.540450684711016 
704	 0.540850037728204 
705	 0.541284934372749 
706	 0.541740185129238 
707	 0.542231018274181 
708	 0.542698564829758 
709	 0.543115807339884 
710	 0.543520030925192 
711	 0.543985466929255 
712	 0.544450518316607 
713	 0.544857910415287 
714	 0.545351770188285 
715	 0.545836798730976 
716	 0.5462840434283 
717	 0.546718216855584 
718	 0.547156438508791 
719	 0.547544808270487 
720	 0.54787887378215 
721	 0.548251578321977 
722	 0.548654396685113 
723	 0.549054021472017 
724	 0.549427498509323 
725	 0.549843914092287 
726	 0.55020674761076 
727	 0.55052825669305 
728	 0.550896410995235 
729	 0.551300029797808 
730	 0.5516572202536 
731	 0.551948268190295 
732	 0.552267402303186 
733	 0.552638366494294 
734	 0.55301220751138 
735	 0.553340695977503 
736	 0.553674561823526 
737	 0.554007571414782 
738	 0.554348442905355 
739	 0.554712064894176 
740	 0.555090591939523 
741	 0.555413649336287 
742	 0.555674516063485 
743	 0.555971342044678 
744	 0.5562272133127 
745	 0.556482689527239 
746	 0.556778843259788 
747	 0.557047379052831 
748	 0.557354765505574 
749	 0.557685711157486 
750	 0.557978362646208 
751	 0.558222128936515 
752	 0.558449944697596 
753	 0.558676440697795 
754	 0.558885421330958 
755	 0.559065755447787 
756	 0.55927888229844 
757	 0.559555070857593 
758	 0.559789296144673 
759	 0.560021796141542 
760	 0.560252438894136 
761	 0.560466330674206 
762	 0.560669530518798 
763	 0.560914553644439 
764	 0.561179716440915 
765	 0.561369006117031 
766	 0.561574237237228 
767	 0.561791197065004 
768	 0.562005669392801 
769	 0.562226321148621 
770	 0.562436771642461 
771	 0.562633626501372 
772	 0.562823693557106 
773	 0.563039081327372 
774	 0.563213011570092 
775	 0.563354146307103 
776	 0.563539192639509 
777	 0.563841047078572 
778	 0.564115035556348 
779	 0.564295324988094 
780	 0.564503208793308 
781	 0.564725876782138 
782	 0.564932253134854 
783	 0.565101687283557 
784	 0.565277391516467 
785	 0.565450823749169 
786	 0.56564183295891 
787	 0.565866549937001 
788	 0.56599339293073 
789	 0.56614175521148 
790	 0.566354040991977 
791	 0.566554405935517 
792	 0.566780159812537 
793	 0.567010490220429 
794	 0.567225610795232 
795	 0.567430915207479 
796	 0.567663789946853 
797	 0.567921300010159 
798	 0.568176068997344 
799	 0.568379727098449 
800	 0.568544310648198 
801	 0.568716624598472 
802	 0.568952220931253 
803	 0.569143999733219 
804	 0.569294707086662 
805	 0.569448266935397 
806	 0.56968294239708 
807	 0.569915165152106 
808	 0.570150675556407 
809	 0.570393089348405 
810	 0.57056469959189 
811	 0.570780586771565 
812	 0.571020749117271 
813	 0.571218532778597 
814	 0.571434686498708 
815	 0.571621335334875 
816	 0.571811939854359 
817	 0.572105735392341 
818	 0.572441069272979 
819	 0.572752577099981 
820	 0.573020279050392 
821	 0.573299215371902 
822	 0.573569870941846 
823	 0.573822507295069 
824	 0.574067062028566 
825	 0.574379018459064 
826	 0.574580890822959 
827	 0.574745085816076 
828	 0.575027566097534 
829	 0.57531151962554 
830	 0.575651054791305 
831	 0.57601184723135 
832	 0.57629047932421 
833	 0.576601240993874 
834	 0.576876000134825 
835	 0.577110650576619 
836	 0.577435799720047 
837	 0.577785583485245 
838	 0.578125267146026 
839	 0.578443750518416 
840	 0.578778272175936 
841	 0.579093091084035 
842	 0.579403221770348 
843	 0.579741793989157 
844	 0.580115998662265 
845	 0.580513372099744 
846	 0.58089478146779 
847	 0.581217260047577 
848	 0.581560033420861 
849	 0.581894950571001 
850	 0.582221027406619 
851	 0.582584199835129 
852	 0.582983486539458 
853	 0.583367279427128 
854	 0.583709461462683 
855	 0.584058166270674 
856	 0.58444529375017 
857	 0.584838089234813 
858	 0.585205717612961 
859	 0.585612867298142 
860	 0.58604252824627 
861	 0.586450814282572 
862	 0.586809614572016 
863	 0.587256533303711 
864	 0.587755761293501 
865	 0.588236527537897 
866	 0.588625543197773 
867	 0.588996913501888 
868	 0.589458336578082 
869	 0.590009821563105 
870	 0.590506632626338 
871	 0.591069840879358 
872	 0.591636173648156 
873	 0.592136213507458 
874	 0.592571675318192 
875	 0.59304884774622 
876	 0.59355563849772 
877	 0.59404792658328 
878	 0.594521505971311 
879	 0.595013662076572 
880	 0.595516075264061 
881	 0.596006127289758 
882	 0.596514245972969 
883	 0.59708811820933 
884	 0.597678524539229 
885	 0.59817815288173 
886	 0.598628815884789 
887	 0.599176454958227 
888	 0.59983232876268 
889	 0.600444158609959 
890	 0.601016924290546 
891	 0.601584582308862 
892	 0.602174720097945 
893	 0.602790340408084 
894	 0.603309954913746 
895	 0.603818923316275 
896	 0.604400111401429 
897	 0.604990222282254 
898	 0.605508109817192 
899	 0.606063732884508 
900	 0.606749779295489 
901	 0.607329650820404 
902	 0.607868472244337 
903	 0.608377615493201 
904	 0.608858135272818 
905	 0.609395242798872 
906	 0.609953791331465 
907	 0.610514588295523 
908	 0.611069624023081 
909	 0.611547084874545 
910	 0.612115180638384 
911	 0.612779423373864 
912	 0.613373716522618 
913	 0.614025144947756 
914	 0.614603784088801 
915	 0.615097411364671 
916	 0.615694225505037 
917	 0.61632471455937 
918	 0.616928238733958 
919	 0.61749054690916 
920	 0.618081699323196 
921	 0.618620348282892 
922	 0.619154693704078 
923	 0.619742143894511 
924	 0.620382045005265 
925	 0.620949142171468 
926	 0.621461688076307 
927	 0.62200527001393 
928	 0.622709184884637 
929	 0.623342264614313 
930	 0.623898501292998 
931	 0.6244728830409 
932	 0.625109111302813 
933	 0.625806377722448 
934	 0.626494003430236 
935	 0.627088809942022 
936	 0.627646099010654 
937	 0.628205412818201 
938	 0.628788987825489 
939	 0.629393292185761 
940	 0.629940660109597 
941	 0.630541187614491 
942	 0.631158379170981 
943	 0.631653085387838 
944	 0.632248877517695 
945	 0.632907773755707 
946	 0.633518551810474 
947	 0.63396439519994 
948	 0.634525944261151 
949	 0.635044337426294 
950	 0.635507259960275 
951	 0.636138927480898 
952	 0.636639071232407 
953	 0.637092172557976 
954	 0.637580824133026 
955	 0.638074006173574 
956	 0.638441922983411 
957	 0.638699974663807 
958	 0.638957073209094 
959	 0.63940120615831 
960	 0.63974049079178 
961	 0.640026806834992 
962	 0.640350316943076 
963	 0.640703021228101 
964	 0.641033469856438 
965	 0.641463191654528 
966	 0.642018232281049 
967	 0.642418801705181 
968	 0.642888528438436 
969	 0.64337345232086 
970	 0.643828452522415 
971	 0.644439144973822 
972	 0.644908608742676 
973	 0.645274647532213 
974	 0.645624504610225 
975	 0.64585165835068 
976	 0.646203677027441 
977	 0.646569064074526 
978	 0.646815147527258 
979	 0.647131426459502 
980	 0.647417160782581 
981	 0.647735284647868 
982	 0.648149986264284 
983	 0.648575457688757 
984	 0.648831724892641 
985	 0.649156367346076 
986	 0.649700956322681 
987	 0.649835636618839 
988	 0.64980534934384 
989	 0.649989413992213 
990	 0.650549338284422 
991	 0.650782036311033 
992	 0.651050989746895 
993	 0.651436494752237 
994	 0.651881078250811 
995	 0.652266093675625 
996	 0.652373403334281 
997	 0.652550869424833 
998	 0.653067652315197 
999	 0.653225254423402 
1000	 0.653342025278176 
1001	 0.673385757852057 
1002	 0.673607805926087 
1003	 0.673810251061562 
1004	 0.674043762884258 
1005	 0.674206377597826 
1006	 0.67444102982439 
1007	 0.674747377935904 
1008	 0.674990375161172 
1009	 0.675195386931281 
1010	 0.675462258105465 
1011	 0.675754787018078 
1012	 0.676044038500509 
1013	 0.676418057454089 
1014	 0.676681692761094 
1015	 0.676886810833963 
1016	 0.677067415752068 
1017	 0.677208915174737 
1018	 0.677285649565588 
1019	 0.677519372723642 
1020	 0.677829570922067 
1021	 0.678048652693912 
1022	 0.678290008288358 
1023	 0.678524733784013 
1024	 0.678660380570403 
1025	 0.678885415719875 
1026	 0.679246931492818 
1027	 0.679492698723171 
1028	 0.679719546339057 
1029	 0.679887732535025 
1030	 0.67997311969286 
1031	 0.680104570603916 
1032	 0.680205126403886 
1033	 0.680354295483462 
1034	 0.680605925860525 
1035	 0.680714820588596 
1036	 0.680907235348408 
1037	 0.68117160388655 
1038	 0.681383904351365 
1039	 0.681576234942819 
1040	 0.681827090038614 
1041	 0.682074218782475 
1042	 0.682321604902711 
1043	 0.682612841830057 
1044	 0.682899135059381 
1045	 0.683077537051921 
1046	 0.683268602911574 
1047	 0.683468244352514 
1048	 0.683576642408531 
1049	 0.683721899789647 
1050	 0.683898448867612 
1051	 0.684044691811375 
1052	 0.684229450950865 
1053	 0.684376152501941 
1054	 0.684495932394537 
1055	 0.684652235828795 
1056	 0.684831014253516 
1057	 0.684967686012778 
1058	 0.685120020322879 
1059	 0.685267650123985 
1060	 0.685305465585821 
1061	 0.685293680250502 
1062	 0.685453198006953 
1063	 0.685663719347586 
1064	 0.685832708847975 
1065	 0.685996376156109 
1066	 0.686007734140539 
1067	 0.685934662869089 
1068	 0.685975441452898 
1069	 0.686108725929786 
1070	 0.68621570903477 
1071	 0.686383223481314 
1072	 0.686494623639895 
1073	 0.686519512707767 
1074	 0.686539933456777 
1075	 0.686545879424719 
1076	 0.686627222902427 
1077	 0.686775433570414 
1078	 0.686855966320643 
1079	 0.686912583019092 
1080	 0.686935150147055 
1081	 0.686963500223896 
1082	 0.687016570392943 
1083	 0.687057736159844 
1084	 0.687083226829261 
1085	 0.687086285866097 
1086	 0.687077717420442 
1087	 0.687021123111747 
1088	 0.6869695155658 
1089	 0.687060100665561 
1090	 0.687228427293282 
1091	 0.687329321197307 
1092	 0.687429666467231 
1093	 0.687485988931976 
1094	 0.687393143953349 
1095	 0.687378637885588 
1096	 0.687446294743786 
1097	 0.687440993013648 
1098	 0.687548124062501 
1099	 0.687679427521178 
1100	 0.687662810731095 
1101	 0.687648834600857 
1102	 0.687633187211919 
1103	 0.687636238407486 
1104	 0.687605379341446 
1105	 0.68765825883117 
1106	 0.687718644879071 
1107	 0.687755537588435 
1108	 0.687780201958944 
1109	 0.687822482983632 
1110	 0.687902168634679 
1111	 0.687977168061025 
1112	 0.687959541534373 
1113	 0.68794124806574 
1114	 0.687950502200314 
1115	 0.687891599587098 
1116	 0.687903507567063 
1117	 0.687968682736103 
1118	 0.688033820398892 
1119	 0.68813632015819 
1120	 0.68822865113704 
1121	 0.688348914281108 
1122	 0.688405909247305 
1123	 0.688448982251685 
1124	 0.688443335375782 
1125	 0.688385626484685 
1126	 0.688374390455902 
1127	 0.688335107066481 
1128	 0.68828256381554 
1129	 0.688269487568049 
1130	 0.688220725359068 
1131	 0.688182869566175 
1132	 0.688153724868946 
1133	 0.688061603728912 
1134	 0.687959975436064 
1135	 0.687883465187421 
1136	 0.687786443618287 
1137	 0.687719226351 
1138	 0.687733914823637 
1139	 0.687650853749562 
1140	 0.687527561022795 
1141	 0.687399760230573 
1142	 0.687227055727507 
1143	 0.687051251755253 
1144	 0.686912017036881 
1145	 0.686761727996315 
1146	 0.686566938819229 
1147	 0.686364318819464 
1148	 0.686198556441163 
1149	 0.686033915810091 
1150	 0.685841858097389 
1151	 0.685645665980917 
1152	 0.685426114813987 
1153	 0.685139266073753 
1154	 0.684884430717505 
1155	 0.684681031029218 
1156	 0.684415903889218 
1157	 0.684097050218909 
1158	 0.683795064791032 
1159	 0.683482129992718 
1160	 0.683134313718086 
1161	 0.68279823914935 
1162	 0.682560385974602 
1163	 0.682297773263767 
1164	 0.681982579806289 
1165	 0.68171143250765 
1166	 0.681443280702746 
1167	 0.681173845996268 
1168	 0.680945214710253 
1169	 0.680683960255807 
1170	 0.680412314997257 
1171	 0.680128125379211 
1172	 0.679796754127772 
1173	 0.679534610317409 
1174	 0.679292701320778 
1175	 0.679068658163709 
1176	 0.678922059959151 
1177	 0.678723368271227 
1178	 0.678508942225003 
1179	 0.678292870178898 
1180	 0.67804278942956 
1181	 0.677726849981921 
1182	 0.677445137110806 
1183	 0.677163950091017 
1184	 0.676901814161537 
1185	 0.676686221563469 
1186	 0.676405903131558 
1187	 0.676056136187995 
1188	 0.675811006070029 
1189	 0.675566095499492 
1190	 0.675365327585581 
1191	 0.675261392068807 
1192	 0.67512467209012 
1193	 0.674975689798968 
1194	 0.674846167885966 
1195	 0.674723506996934 
1196	 0.674625891617562 
1197	 0.67453829238997 
1198	 0.674482021969012 
1199	 0.674439536693738 
1200	 0.674409694767823 
1201	 0.674332534010686 
1202	 0.674256791504673 
1203	 0.674244774978648 
1204	 0.67421984085442 
1205	 0.674187530557804 
1206	 0.674177643884996 
1207	 0.674171811159834 
1208	 0.674120502295747 
1209	 0.674145961949226 
1210	 0.674213482913496 
1211	 0.67430489501856 
1212	 0.674426953502846 
1213	 0.674574758681473 
1214	 0.674745927202019 
1215	 0.67497351792786 
1216	 0.675230325877509 
1217	 0.675525454826065 
1218	 0.675865911476909 
1219	 0.676259608547197 
1220	 0.67668637441198 
1221	 0.6771290488256 
1222	 0.677534886302632 
1223	 0.677948277964365 
1224	 0.678361419969725 
1225	 0.678756118333627 
1226	 0.679140444035165 
1227	 0.679531754439136 
1228	 0.679925100731821 
1229	 0.680308708986397 
1230	 0.680672246932756 
1231	 0.681062897597669 
1232	 0.681404142179016 
1233	 0.681694223534243 
1234	 0.681979352661598 
1235	 0.682233782494824 
1236	 0.68249573334689 
1237	 0.682748646682254 
1238	 0.68299380126353 
1239	 0.683248219084756 
1240	 0.683497797594493 
1241	 0.683691517806387 
1242	 0.683828843585927 
1243	 0.683978626799271 
1244	 0.684088004461036 
1245	 0.684223288450149 
1246	 0.684363059174405 
1247	 0.684507321485491 
1248	 0.684659809433654 
1249	 0.684787358823478 
1250	 0.684935929401744 
1251	 0.685029208224896 
1252	 0.685054378178526 
1253	 0.685125596223817 
1254	 0.685194754311042 
1255	 0.685259041332021 
1256	 0.685360031636609 
1257	 0.685422007396449 
1258	 0.685428220451722 
1259	 0.685466032754684 
1260	 0.685519839053921 
1261	 0.685555422783231 
1262	 0.685586082808574 
1263	 0.685635802091825 
1264	 0.685663109734986 
1265	 0.685659832157539 
1266	 0.685682820441754 
1267	 0.68571494651488 
1268	 0.685750500928084 
1269	 0.685801902032066 
1270	 0.685828542966978 
1271	 0.68584688607108 
1272	 0.685866099019378 
1273	 0.685862091809266 
1274	 0.685881803106422 
1275	 0.685910343142924 
1276	 0.685951465790026 
1277	 0.686014153529222 
1278	 0.686062495752193 
1279	 0.68612090188141 
1280	 0.68616798348277 
1281	 0.68622601979663 
1282	 0.686240862241842 
1283	 0.686199035038751 
1284	 0.686199069550952 
1285	 0.686202877811905 
1286	 0.68619532076355 
1287	 0.686170774193486 
1288	 0.686157165269891 
1289	 0.686159808775577 
1290	 0.686139959859163 
1291	 0.686128539266698 
1292	 0.686174615838114 
1293	 0.686154416713697 
1294	 0.68609737363861 
1295	 0.686016656644914 
1296	 0.685897988544949 
1297	 0.685801362923724 
1298	 0.685676381499075 
1299	 0.685567696803599 
1300	 0.685476876089804 
1301	 0.685390926877385 
1302	 0.685291927708315 
1303	 0.685215282431797 
1304	 0.685160728254813 
1305	 0.685113677462885 
1306	 0.685106060239121 
1307	 0.685058036425915 
1308	 0.684982896707737 
1309	 0.684936670836301 
1310	 0.684853047494711 
1311	 0.684728170542253 
1312	 0.684635964770509 
1313	 0.684552305471951 
1314	 0.684460602890412 
1315	 0.684371162246857 
1316	 0.684277304495164 
1317	 0.684161581521476 
1318	 0.684089450292437 
1319	 0.684036350294453 
1320	 0.683983198889884 
1321	 0.68397168587833 
1322	 0.683920582072744 
1323	 0.683842498679334 
1324	 0.683779473651577 
1325	 0.683697754103723 
1326	 0.683643153125658 
1327	 0.683637395970665 
1328	 0.6835803651439 
1329	 0.683499235097796 
1330	 0.683429005553024 
1331	 0.68333335214617 
1332	 0.683242588390099 
1333	 0.68315223637197 
1334	 0.68307795553466 
1335	 0.683036797326805 
1336	 0.68301708416989 
1337	 0.682951545441889 
1338	 0.682930547834549 
1339	 0.682815009031699 
1340	 0.68260785333834 
1341	 0.682452952249708 
1342	 0.68228821912605 
1343	 0.682125181583213 
1344	 0.681971253475607 
1345	 0.681806909873764 
1346	 0.681647587022777 
1347	 0.68145388875457 
1348	 0.681242488228168 
1349	 0.681025641152103 
1350	 0.680766723719575 
1351	 0.680534806930841 
1352	 0.680296824638875 
1353	 0.680091997467051 
1354	 0.679948350836381 
1355	 0.679738907578414 
1356	 0.679510557138285 
1357	 0.679286328609293 
1358	 0.678996863557799 
1359	 0.67874695796308 
1360	 0.678535960017176 
1361	 0.678326913490389 
1362	 0.678091555508632 
1363	 0.677892278282831 
1364	 0.677650687115496 
1365	 0.677394774915845 
1366	 0.677134527250748 
1367	 0.676861214837915 
1368	 0.676575517959044 
1369	 0.676313840827275 
1370	 0.675961741868626 
1371	 0.675583411279991 
1372	 0.675139809051323 
1373	 0.674618116732542 
1374	 0.674087279740577 
1375	 0.673485163731695 
1376	 0.672920021034471 
1377	 0.672310497374895 
1378	 0.671762450330971 
1379	 0.671253112812876 
1380	 0.670737879324343 
1381	 0.670267080728375 
1382	 0.669750069718264 
1383	 0.669242415387578 
1384	 0.668671230481769 
1385	 0.668098859075897 
1386	 0.667435858018036 
1387	 0.666690431000303 
1388	 0.665933100476389 
1389	 0.665105310807532 
1390	 0.664280197252301 
1391	 0.663467597857258 
1392	 0.662595071805996 
1393	 0.661741839577725 
1394	 0.66084579940993 
1395	 0.659943376865324 
1396	 0.659019865335087 
1397	 0.65811025220269 
1398	 0.657199578015452 
1399	 0.656259734368583 
1400	 0.655360349955077 
1401	 0.654319927233124 
1402	 0.653276083631293 
1403	 0.652018684045843 
1404	 0.650695462377219 
1405	 0.649128570521076 
1406	 0.647390885442934 
1407	 0.645463521855525 
1408	 0.643190471657308 
1409	 0.64107124882415 
1410	 0.638651340831405 
1411	 0.636676057664179 
1412	 0.634668406871726 
1413	 0.633267558376735 
1414	 0.632155857870722 
1415	 0.631542099414636 
1416	 0.631596059158738 
1417	 0.631695151793008 
1418	 0.632319221521815 
1419	 0.632779957392815 
1420	 0.633443007161523 
1421	 0.633876923596991 
1422	 0.634246107228259 
1423	 0.634477089095965 
1424	 0.634531312028928 
1425	 0.634507447000881 
1426	 0.634413925013676 
1427	 0.634253756690361 
1428	 0.634043039030156 
1429	 0.633757626883161 
1430	 0.633495137267537 
1431	 0.633184733905503 
1432	 0.632906193218182 
1433	 0.632634863970801 
1434	 0.632367075380177 
1435	 0.632081401032803 
1436	 0.631850467230966 
1437	 0.631646855497626 
1438	 0.631454175822179 
1439	 0.631309515739362 
1440	 0.631125109465118 
1441	 0.630924908196555 
1442	 0.630743859303991 
1443	 0.630561719576796 
1444	 0.630383836895793 
1445	 0.630199963053722 
1446	 0.630057434349756 
1447	 0.629928685717503 
1448	 0.629810400836926 
1449	 0.629737464664589 
1450	 0.629649456566367 
1451	 0.629550684000363 
1452	 0.629466860364943 
1453	 0.629407913371519 
1454	 0.629326090008965 
1455	 0.629240587651984 
1456	 0.62914971268495 
1457	 0.62904525656435 
1458	 0.628939307849464 
1459	 0.62881448597782 
1460	 0.62871371372564 
1461	 0.62860415377907 
1462	 0.628527462222979 
1463	 0.62849064069699 
1464	 0.62845163933912 
1465	 0.628417696542915 
1466	 0.628424969287626 
1467	 0.628375239882647 
1468	 0.62832240955879 
1469	 0.628294234487606 
1470	 0.6282272557823 
1471	 0.628188548360616 
1472	 0.628174860635803 
1473	 0.628142774794413 
1474	 0.628108083633848 
1475	 0.628056675662976 
1476	 0.627991239915535 
1477	 0.627947612321715 
1478	 0.627904046717959 
1479	 0.62784651581622 
1480	 0.627825694605002 
1481	 0.627727218310571 
1482	 0.627574430535897 
1483	 0.6274253752296 
1484	 0.627239209245346 
1485	 0.62706168068133 
1486	 0.626883365119006 
1487	 0.626691783402136 
1488	 0.626481317318992 
1489	 0.626279816375681 
1490	 0.626062014446812 
1491	 0.625872410927978 
1492	 0.625679301775168 
1493	 0.625530223885771 
1494	 0.625407342791131 
1495	 0.625309782579677 
1496	 0.625245376849908 
1497	 0.625203539769358 
1498	 0.625187041337186 
1499	 0.625190589924249 
1500	 0.625245033220393 
1501	 0.625270321570462 
1502	 0.625253569426643 
1503	 0.625323060757152 
1504	 0.6253909307401 
1505	 0.625539705311605 
1506	 0.625801625287741 
1507	 0.626057896954025 
1508	 0.626358845428229 
1509	 0.626665296000836 
1510	 0.627024831373834 
1511	 0.627335631551759 
1512	 0.627624521944719 
1513	 0.627918769501561 
1514	 0.628208781865059 
1515	 0.628463955144117 
1516	 0.628691056559579 
1517	 0.628937748368644 
1518	 0.629169769657269 
1519	 0.629389103776354 
1520	 0.629618538082357 
1521	 0.629847159802567 
1522	 0.630073668994011 
1523	 0.630286636759518 
1524	 0.630541522643131 
1525	 0.630838908622544 
1526	 0.631115196097821 
1527	 0.631397452647673 
1528	 0.631669231420577 
1529	 0.631947458565513 
1530	 0.632198554139344 
1531	 0.632422980462834 
1532	 0.632681874729936 
1533	 0.632926304218226 
1534	 0.633219846487982 
1535	 0.633548365136469 
1536	 0.633885426639049 
1537	 0.634273856605212 
1538	 0.634585914389145 
1539	 0.634895899160273 
1540	 0.635159405146513 
1541	 0.635359507765294 
1542	 0.635573747674201 
1543	 0.63576673220132 
1544	 0.635976338454746 
1545	 0.636187679113309 
1546	 0.636379290460027 
1547	 0.636581593734466 
1548	 0.636750386819689 
1549	 0.636880955812806 
1550	 0.637023494076558 
1551	 0.637183893295294 
1552	 0.637278883140453 
1553	 0.637337792794634 
1554	 0.637395509780154 
1555	 0.637379554676746 
1556	 0.637439013848875 
1557	 0.637556948055671 
1558	 0.637620853520432 
1559	 0.63768592890802 
1560	 0.637744026486272 
1561	 0.637744497761459 
1562	 0.637809808684577 
1563	 0.637943309093388 
1564	 0.638010888740765 
1565	 0.638054899468081 
1566	 0.638126842701625 
1567	 0.638177695896737 
1568	 0.638238669153935 
1569	 0.638336784449959 
1570	 0.638418009004385 
1571	 0.638430538505474 
1572	 0.638547843303269 
1573	 0.638761420538819 
1574	 0.638908742961646 
1575	 0.639093862538328 
1576	 0.639237705873278 
1577	 0.639287538485444 
1578	 0.639414830442188 
1579	 0.639591858147067 
1580	 0.639743871224684 
1581	 0.639909887605712 
1582	 0.640072854763536 
1583	 0.640229914918094 
1584	 0.640378236486586 
1585	 0.640533461954932 
1586	 0.640678110271339 
1587	 0.640804589542311 
1588	 0.640926844062192 
1589	 0.641069831607338 
1590	 0.641166943829568 
1591	 0.641221108334633 
1592	 0.64128645026783 
1593	 0.641306804575633 
1594	 0.641369930381736 
1595	 0.641468701801551 
1596	 0.641554571299515 
1597	 0.641639130570483 
1598	 0.641746475395791 
1599	 0.641856044014921 
1600	 0.641978172108739 
1601	 0.64213113866474 
1602	 0.642280871876592 
1603	 0.642459877183077 
1604	 0.642591451549205 
1605	 0.642701819568444 
1606	 0.642810058432735 
1607	 0.642873838626339 
1608	 0.642956384221278 
1609	 0.643069935619584 
1610	 0.643150157343814 
1611	 0.643199305424851 
1612	 0.643263914340503 
1613	 0.643313007464542 
1614	 0.643375590531371 
1615	 0.643467629612566 
1616	 0.643539094812982 
1617	 0.643594825581637 
1618	 0.643662128291747 
1619	 0.643723027519489 
1620	 0.643792408609356 
1621	 0.643892402761883 
1622	 0.643958521915341 
1623	 0.644007849091542 
1624	 0.644054779574262 
1625	 0.644078412763087 
1626	 0.644106203539784 
1627	 0.644168142353056 
1628	 0.644167411969928 
1629	 0.644128491685616 
1630	 0.644077088656817 
1631	 0.643948095804211 
1632	 0.643873062980587 
1633	 0.64382947803255 
1634	 0.643772311457712 
1635	 0.643713701424762 
1636	 0.643685492572309 
1637	 0.643655889578732 
1638	 0.643647270180583 
1639	 0.643681141968069 
1640	 0.643710698450173 
1641	 0.643751372523692 
1642	 0.64378233511206 
1643	 0.643862299147678 
1644	 0.643860394101361 
1645	 0.643804343725174 
1646	 0.643736216319558 
1647	 0.643592160910789 
1648	 0.64348174392901 
1649	 0.643422252190376 
1650	 0.643283978750268 
1651	 0.643100102546249 
1652	 0.642917794383426 
1653	 0.642662754904576 
1654	 0.642448872368198 
1655	 0.642286675889609 
1656	 0.642080388357099 
1657	 0.641895094031722 
1658	 0.641624967173121 
1659	 0.641290679587309 
1660	 0.640944470745815 
1661	 0.640537752387487 
1662	 0.640122603118915 
1663	 0.639691834145373 
1664	 0.639236508267747 
1665	 0.638748423727897 
1666	 0.638252345158804 
1667	 0.637776906369764 
1668	 0.637222988323411 
1669	 0.636632621597251 
1670	 0.635985083040022 
1671	 0.635271878940414 
1672	 0.634506521252967 
1673	 0.633731921099005 
1674	 0.632830108640896 
1675	 0.631794580310305 
1676	 0.630790180979198 
1677	 0.629726536367206 
1678	 0.628626691485617 
1679	 0.627512934297772 
1680	 0.626369252248348 
1681	 0.6251656799432 
1682	 0.623934101373762 
1683	 0.622690336493965 
1684	 0.6214369985345 
1685	 0.620135720375084 
1686	 0.618830438804627 
1687	 0.617492168490681 
1688	 0.616208470128213 
1689	 0.614927155650778 
1690	 0.613637132898869 
1691	 0.612383076083558 
1692	 0.611153488825913 
1693	 0.609898480194454 
1694	 0.608704973791901 
1695	 0.607609887180715 
1696	 0.606420149435469 
1697	 0.605233640649837 
1698	 0.603927187656869 
1699	 0.602562437013923 
1700	 0.6011697498959 
1701	 0.599657308049874 
1702	 0.598267214907839 
1703	 0.596880292760571 
1704	 0.595490715747906 
1705	 0.594138706720412 
1706	 0.592683965211796 
1707	 0.591399648680031 
1708	 0.590225047703215 
1709	 0.589068824520608 
1710	 0.587940666309641 
1711	 0.586780562693089 
1712	 0.585605276627345 
1713	 0.58440337773188 
1714	 0.583271667590103 
1715	 0.582199302995205 
1716	 0.581108246952549 
1717	 0.580100756128061 
1718	 0.579081263733593 
1719	 0.57797848318223 
1720	 0.576910364525732 
1721	 0.575837102325231 
1722	 0.57476842240002 
1723	 0.573904877629744 
1724	 0.573103269701338 
1725	 0.572383372382418 
1726	 0.571907350689241 
1727	 0.57154642931308 
1728	 0.571371239992231 
1729	 0.57143135588399 
1730	 0.571669153308383 
1731	 0.572146869800693 
1732	 0.572872483544368 
1733	 0.573698350511975 
1734	 0.574718856596218 
1735	 0.575807263845488 
1736	 0.576868924419397 
1737	 0.578057650101615 
1738	 0.579197106060795 
1739	 0.580219554887662 
1740	 0.581252793934843 
1741	 0.582104707277559 
1742	 0.582790882495975 
1743	 0.583453956443203 
1744	 0.584036395236875 
1745	 0.584521833206212 
1746	 0.58496677553419 
1747	 0.585230632768875 
1748	 0.585298488117153 
1749	 0.585369608461181 
1750	 0.585342731101999 
1751	 0.585287564382192 
1752	 0.585204338820118 
1753	 0.585060719739558 
1754	 0.584808225245475 
1755	 0.584574555232177 
1756	 0.584293919458648 
1757	 0.584088677449702 
1758	 0.583895327868605 
1759	 0.583739519135057 
1760	 0.583645649964096 
1761	 0.583639569658327 
1762	 0.583745324948856 
1763	 0.584040632752831 
1764	 0.584444728650792 
1765	 0.58489322200783 
1766	 0.585436737122199 
1767	 0.586099080303791 
1768	 0.58689358023844 
1769	 0.587712726796217 
1770	 0.588575172957091 
1771	 0.589477093848282 
1772	 0.590280750225311 
1773	 0.591119796924183 
1774	 0.591999449063662 
1775	 0.592780381679199 
1776	 0.593523554752346 
1777	 0.594258530508692 
1778	 0.594871406706315 
1779	 0.595401428534786 
1780	 0.595946915030645 
1781	 0.596413035255522 
1782	 0.596867835050682 
1783	 0.597349316886787 
1784	 0.597752451099662 
1785	 0.598144483757723 
1786	 0.598478505253229 
1787	 0.598769031296044 
1788	 0.598982381648095 
1789	 0.599100896355316 
1790	 0.599202689006081 
1791	 0.599220204140621 
1792	 0.599309850913526 
1793	 0.599396270359928 
1794	 0.599545842566882 
1795	 0.599696131787264 
1796	 0.599766364262917 
1797	 0.599824981345007 
1798	 0.599910819648259 
1799	 0.600057054686566 
1800	 0.600144357999706 
1801	 0.582736046802913 
1802	 0.582972836035946 
1803	 0.583170878504265 
1804	 0.583345920408004 
1805	 0.583538254316189 
1806	 0.583739952710598 
1807	 0.583971340411539 
1808	 0.584149465270326 
1809	 0.584362169354127 
1810	 0.584480309945339 
1811	 0.584482038663484 
1812	 0.584550911291019 
1813	 0.584614758969952 
1814	 0.584637559847509 
1815	 0.5847374793612 
1816	 0.584919474622986 
1817	 0.585016549822863 
1818	 0.585070705640394 
1819	 0.585178192486878 
1820	 0.585270207081504 
1821	 0.585365457425233 
1822	 0.585444307035199 
1823	 0.585648096858019 
1824	 0.58578371054165 
1825	 0.585936727229254 
1826	 0.586143796570815 
1827	 0.586463921208689 
1828	 0.586626615382009 
1829	 0.586730834443103 
1830	 0.586862915132474 
1831	 0.586957392491178 
1832	 0.587026837473368 
1833	 0.587089482203085 
1834	 0.587225188176794 
1835	 0.587290129415212 
1836	 0.587297537305887 
1837	 0.587349571295589 
1838	 0.58742559179973 
1839	 0.587495170555369 
1840	 0.58758145948118 
1841	 0.587638061124482 
1842	 0.587666467728293 
1843	 0.587721202164993 
1844	 0.587834738206651 
1845	 0.58790737359601 
1846	 0.588027839701759 
1847	 0.588124277873502 
1848	 0.588159459965761 
1849	 0.588108903537265 
1850	 0.588118150217329 
1851	 0.588132690200427 
1852	 0.588117483857756 
1853	 0.588079290289115 
1854	 0.588049177155883 
1855	 0.587992420215697 
1856	 0.587896882880903 
1857	 0.587869360715903 
1858	 0.587769588020121 
1859	 0.587627370731938 
1860	 0.587472984938619 
1861	 0.58725589101178 
1862	 0.586975702446888 
1863	 0.586658594038397 
1864	 0.586326098688102 
1865	 0.585964933665401 
1866	 0.585563519653762 
1867	 0.585116728144265 
1868	 0.584661085846432 
1869	 0.584159088583851 
1870	 0.583643072087186 
1871	 0.583150542926799 
1872	 0.582589683728467 
1873	 0.582002103260007 
1874	 0.581340227314491 
1875	 0.580636356327595 
1876	 0.579777000788902 
1877	 0.578850682803829 
1878	 0.577865945405401 
1879	 0.576802247402276 
1880	 0.575793637150947 
1881	 0.574690767128003 
1882	 0.573534089136903 
1883	 0.572341240425825 
1884	 0.571073700876088 
1885	 0.569661745932622 
1886	 0.568302118417838 
1887	 0.566746980846115 
1888	 0.565029027762452 
1889	 0.563312605250528 
1890	 0.561369773957646 
1891	 0.559484027636989 
1892	 0.557608662831082 
1893	 0.5555708894485 
1894	 0.553400837388108 
1895	 0.551285843060506 
1896	 0.549003521551575 
1897	 0.546615256055451 
1898	 0.544413848968592 
1899	 0.542086146621171 
1900	 0.539738320398652 
1901	 0.537423373306787 
1902	 0.534902749025972 
1903	 0.532480618923379 
1904	 0.530031887641298 
1905	 0.527539841234435 
1906	 0.525053397322574 
1907	 0.522771344382221 
1908	 0.520318014133499 
1909	 0.517962784045828 
1910	 0.515719649917769 
1911	 0.513331076365355 
1912	 0.511153274733712 
1913	 0.509002862995337 
1914	 0.50683215137838 
1915	 0.504803227226182 
1916	 0.502919994346235 
1917	 0.500972122144028 
1918	 0.499105558951146 
1919	 0.497297803589409 
1920	 0.495397562031798 
1921	 0.493600482684432 
1922	 0.491783994278959 
1923	 0.490007818520567 
1924	 0.488388676978982 
1925	 0.486781444985178 
1926	 0.485262645870472 
1927	 0.483880604710356 
1928	 0.482477820257213 
1929	 0.481094916917296 
1930	 0.479788109104318 
1931	 0.478487853061826 
1932	 0.477259068977445 
1933	 0.476183603795773 
1934	 0.475159486606178 
1935	 0.474172761652871 
1936	 0.47326831719959 
1937	 0.472429528582457 
1938	 0.471560044694832 
1939	 0.470904266604183 
1940	 0.470394486177647 
1941	 0.469991818859674 
1942	 0.46962541512892 
1943	 0.469355142474569 
1944	 0.469104530649803 
1945	 0.46882222897811 
1946	 0.468658826013436 
1947	 0.468564893168418 
1948	 0.46847899849778 
1949	 0.468490969310537 
1950	 0.468539728645095 
1951	 0.468642608171548 
1952	 0.468771297857505 
1953	 0.468926685090382 
1954	 0.469171256987199 
1955	 0.469459195277662 
1956	 0.469805774577075 
1957	 0.470272490446148 
1958	 0.470692661350117 
1959	 0.471060542499414 
1960	 0.471452227663589 
1961	 0.471880300920549 
1962	 0.472293460259308 
1963	 0.47276820614978 
1964	 0.473348060724758 
1965	 0.473848620745825 
1966	 0.474342244074875 
1967	 0.474805301693545 
1968	 0.475233801600445 
1969	 0.475733504173205 
1970	 0.476234918402717 
1971	 0.476748960433862 
1972	 0.477298279072176 
1973	 0.477742367279614 
1974	 0.478249587021905 
1975	 0.478791573510124 
1976	 0.479299742481118 
1977	 0.479791528938285 
1978	 0.480341958562661 
1979	 0.48090046625631 
1980	 0.481441812797079 
1981	 0.482093704287208 
1982	 0.482702176883954 
1983	 0.483294109913888 
1984	 0.483860530677703 
1985	 0.484354501321735 
1986	 0.484886008830573 
1987	 0.485419374221333 
1988	 0.485948547453252 
1989	 0.486481419899568 
1990	 0.487035395320843 
1991	 0.487567939085394 
1992	 0.488105710847972 
1993	 0.488597342847839 
1994	 0.489075659483025 
1995	 0.489626076114876 
1996	 0.49014729828852 
1997	 0.490681940819357 
1998	 0.491218828293129 
1999	 0.491740111769352 
2000	 0.492307860468684 
2001	 0.492934083256381 
2002	 0.4935145275619 
2003	 0.494145451351231 
2004	 0.494698066438291 
2005	 0.49515356115687 
2006	 0.495635859062397 
2007	 0.496102903305077 
2008	 0.496575824879318 
2009	 0.497067770737647 
2010	 0.497509617994477 
2011	 0.497884148211557 
2012	 0.498283743478438 
2013	 0.498642663398692 
2014	 0.498967399168539 
2015	 0.499269660179127 
2016	 0.499553790802995 
2017	 0.499795445204007 
2018	 0.499999399015513 
2019	 0.500178547429281 
2020	 0.500328589098453 
2021	 0.500480725306948 
2022	 0.500531050168394 
2023	 0.50054400862373 
2024	 0.500485655680213 
2025	 0.500352605839158 
2026	 0.500178557550571 
2027	 0.499933301076599 
2028	 0.499671303015666 
2029	 0.49935955727675 
2030	 0.499028760677506 
2031	 0.49863949684287 
2032	 0.498284943636899 
2033	 0.497931663907094 
2034	 0.497542122886781 
2035	 0.497119336129839 
2036	 0.496747958095859 
2037	 0.496347643665892 
2038	 0.495954025227512 
2039	 0.495636473314577 
2040	 0.495389749127191 
2041	 0.495141343705853 
2042	 0.49487849927411 
2043	 0.494750168526307 
2044	 0.494672962377878 
2045	 0.494675445556554 
2046	 0.494821157051098 
2047	 0.494960582521722 
2048	 0.495130703015719 
2049	 0.495353654218149 
2050	 0.49564585633982 
2051	 0.495918309016665 
2052	 0.496286904751703 
2053	 0.496690236640437 
2054	 0.497099376639585 
2055	 0.497534426062038 
2056	 0.498028362588206 
2057	 0.498540232149465 
2058	 0.499096810468293 
2059	 0.499762110040715 
2060	 0.500349776548049 
2061	 0.500930530012869 
2062	 0.501521025891423 
2063	 0.502065768456121 
2064	 0.502658475847665 
2065	 0.503301169814222 
2066	 0.503912922560507 
2067	 0.504535197049806 
2068	 0.505178248113183 
2069	 0.505815779642932 
2070	 0.50648342516057 
2071	 0.507059839183312 
2072	 0.507596597571498 
2073	 0.508143824533924 
2074	 0.508630534347883 
2075	 0.509132878100627 
2076	 0.509636337018877 
2077	 0.510163822448375 
2078	 0.510730734251235 
2079	 0.51122797758026 
2080	 0.51172612895212 
2081	 0.512203297874803 
2082	 0.512665220704082 
2083	 0.513009449917898 
2084	 0.513359013679613 
2085	 0.513665379811743 
2086	 0.513953083506197 
2087	 0.514174158537494 
2088	 0.514387436932952 
2089	 0.51459494902331 
2090	 0.514786956426354 
2091	 0.514908258311291 
2092	 0.515066743138402 
2093	 0.515252184314757 
2094	 0.51541431171258 
2095	 0.515575109760011 
2096	 0.515723099135391 
2097	 0.515854967955955 
2098	 0.515997669924562 
2099	 0.516097126366899 
2100	 0.5161626135997 
2101	 0.51622849263197 
2102	 0.51627130587071 
2103	 0.516305092696409 
2104	 0.516347741701963 
2105	 0.516335148686738 
2106	 0.516277532640044 
2107	 0.516220840730951 
2108	 0.516132814222044 
2109	 0.516041526512236 
2110	 0.515983323409343 
2111	 0.515843288285909 
2112	 0.51562050740164 
2113	 0.515425662260357 
2114	 0.51518312836067 
2115	 0.514957113861144 
2116	 0.514742193279545 
2117	 0.514558323160079 
2118	 0.514347860934558 
2119	 0.514129795434263 
2120	 0.513904201333935 
2121	 0.513657339791958 
2122	 0.513456585870208 
2123	 0.513271377087889 
2124	 0.51307167864383 
2125	 0.512921891713884 
2126	 0.512708348255115 
2127	 0.5124359492964 
2128	 0.512201111909464 
2129	 0.511959446190566 
2130	 0.511711605556451 
2131	 0.511519003477729 
2132	 0.511241278985302 
2133	 0.510951256375805 
2134	 0.510596116985164 
2135	 0.510079453053411 
2136	 0.509531275306182 
2137	 0.508962555511323 
2138	 0.508269038402506 
2139	 0.50768154850921 
2140	 0.507115777493161 
2141	 0.50657564729984 
2142	 0.506122129883187 
2143	 0.505545349371241 
2144	 0.504943935620276 
2145	 0.504319203057968 
2146	 0.503572359535818 
2147	 0.502896013076923 
2148	 0.50226835223773 
2149	 0.501616281346943 
2150	 0.500990926487088 
2151	 0.500306989987559 
2152	 0.499555342622443 
2153	 0.498860873630453 
2154	 0.498117184320307 
2155	 0.497344870648768 
2156	 0.496603222208053 
2157	 0.495900658287279 
2158	 0.495129585221121 
2159	 0.494349301534674 
2160	 0.493520906554827 
2161	 0.492605816895208 
2162	 0.491773142044 
2163	 0.490959481228666 
2164	 0.490111012293606 
2165	 0.489257204383742 
2166	 0.488439577821987 
2167	 0.487600491242169 
2168	 0.486788024956857 
2169	 0.486053378393294 
2170	 0.485288955480521 
2171	 0.484425184700529 
2172	 0.483690628708208 
2173	 0.483050237281963 
2174	 0.482365755485003 
2175	 0.481830544599844 
2176	 0.481387404488586 
2177	 0.480986847950661 
2178	 0.480643342772606 
2179	 0.480398298546187 
2180	 0.480255900355799 
2181	 0.480108333888688 
2182	 0.480047029507205 
2183	 0.479978225463052 
2184	 0.479900554928597 
2185	 0.479898664895266 
2186	 0.479988797855791 
2187	 0.480021127366927 
2188	 0.480100433688748 
2189	 0.480113434219182 
2190	 0.480017909712645 
2191	 0.480035262783606 
2192	 0.480118294612175 
2193	 0.480150133759255 
2194	 0.480197155964915 
2195	 0.480262493169438 
2196	 0.4803064457894 
2197	 0.480336138298429 
2198	 0.480400768300575 
2199	 0.480512175540074 
2200	 0.480598680080011 
2201	 0.480644709209814 
2202	 0.480751436003941 
2203	 0.480945723691444 
2204	 0.480996772424328 
2205	 0.481038438378264 
2206	 0.480990735133893 
2207	 0.48076267294888 
2208	 0.480692996565453 
2209	 0.480609636128053 
2210	 0.480594906544029 
2211	 0.480769760428183 
2212	 0.480748786741318 
2213	 0.480638155704226 
2214	 0.480582800122294 
2215	 0.480422414615627 
2216	 0.480331640255816 
2217	 0.480258945699745 
2218	 0.480290383304567 
2219	 0.480418594813354 
2220	 0.480501767588515 
2221	 0.480698236509931 
2222	 0.480882156991435 
2223	 0.480749681594763 
2224	 0.480568614041503 
2225	 0.480338037132005 
2226	 0.480004802158918 
2227	 0.479734070229868 
2228	 0.479519834556851 
2229	 0.479204174458574 
2230	 0.478871598862855 
2231	 0.478409016181778 
2232	 0.47787836992766 
2233	 0.477256061182271 
2234	 0.476502220519637 
2235	 0.47574271439893 
2236	 0.474966879451085 
2237	 0.474048850251993 
2238	 0.473068728619144 
2239	 0.471966059869163 
2240	 0.470694016028771 
2241	 0.4693824853921 
2242	 0.467977844231411 
2243	 0.466532899899913 
2244	 0.465049283688631 
2245	 0.463487574111994 
2246	 0.461840377405385 
2247	 0.460150481083691 
2248	 0.458450151244032 
2249	 0.456578923532274 
2250	 0.454580235140334 
2251	 0.452590649419411 
2252	 0.450319592573298 
2253	 0.448035590385407 
2254	 0.445719660399803 
2255	 0.443318949066675 
2256	 0.441028348074974 
2257	 0.438633484090894 
2258	 0.436370174681909 
2259	 0.434186441210534 
2260	 0.431957980000418 
2261	 0.429742884780649 
2262	 0.427608418097449 
2263	 0.425406013447762 
2264	 0.423438197312806 
2265	 0.421713841283908 
2266	 0.419824210313706 
2267	 0.41794070915768 
2268	 0.416145117013746 
2269	 0.414327131912813 
2270	 0.412535459836795 
2271	 0.410902067705151 
2272	 0.409139081168124 
2273	 0.407264646615836 
2274	 0.405433126339309 
2275	 0.403667815130708 
2276	 0.401799452397901 
2277	 0.399839029445554 
2278	 0.397919577202989 
2279	 0.395909775409815 
2280	 0.393966515683349 
2281	 0.392014463331285 
2282	 0.390166613825815 
2283	 0.388350844711958 
2284	 0.386677541443099 
2285	 0.385002401503659 
2286	 0.383540212463733 
2287	 0.3820256393565 
2288	 0.380440641795372 
2289	 0.379044889560785 
2290	 0.37766396595478 
2291	 0.376356997825962 
2292	 0.375145485369487 
2293	 0.373881018195935 
2294	 0.372580869155334 
2295	 0.371189134517765 
2296	 0.369643149632109 
2297	 0.368024105145924 
2298	 0.366184398855806 
2299	 0.364506112323795 
2300	 0.362798441796021 
2301	 0.361184751561177 
2302	 0.359554476372048 
2303	 0.358198212720653 
2304	 0.356925799737948 
2305	 0.355897385615464 
2306	 0.355105106718224 
2307	 0.354495926084256 
2308	 0.353953496849611 
2309	 0.353897291554225 
2310	 0.354120263414286 
2311	 0.354752520419623 
2312	 0.355832477717712 
2313	 0.357234893665377 
2314	 0.359156259458051 
2315	 0.361132993702788 
2316	 0.363652101938514 
2317	 0.365829064942911 
2318	 0.368089543530456 
2319	 0.370089879380223 
2320	 0.372036671688737 
2321	 0.373586935726396 
2322	 0.374840815448225 
2323	 0.375901578200244 
2324	 0.376545508492613 
2325	 0.377141989734264 
2326	 0.377759548424442 
2327	 0.377945045375002 
2328	 0.377696582883293 
2329	 0.377477476803686 
2330	 0.377033202701352 
2331	 0.376376792630403 
2332	 0.375739049936933 
2333	 0.375064948700685 
2334	 0.373908789147117 
2335	 0.372471112095944 
2336	 0.371023925598523 
2337	 0.369235652519983 
2338	 0.367601258109554 
2339	 0.365943999733717 
2340	 0.363967653334786 
2341	 0.361959045674099 
2342	 0.359771699115915 
2343	 0.357569706639712 
2344	 0.355381069688479 
2345	 0.353479823136869 
2346	 0.352101839330788 
2347	 0.350694751246026 
2348	 0.349656704472132 
2349	 0.349287125462184 
2350	 0.348820766443415 
2351	 0.348822766536645 
2352	 0.349547324696312 
2353	 0.350348939003408 
2354	 0.351495360885777 
2355	 0.353011834685912 
2356	 0.354499653251312 
2357	 0.356152311552331 
2358	 0.357910452723383 
2359	 0.359491449070241 
2360	 0.361070808556989 
2361	 0.362676497639959 
2362	 0.364270387474407 
2363	 0.365901315776598 
2364	 0.367393082717172 
2365	 0.36863836259404 
2366	 0.369594150774179 
2367	 0.370441187735242 
2368	 0.371265266787836 
2369	 0.371823680437089 
2370	 0.372359754783472 
2371	 0.372814190963025 
2372	 0.373095866649711 
2373	 0.373535769779668 
2374	 0.373756515106373 
2375	 0.373791482604918 
2376	 0.373894485216695 
2377	 0.3738030257256 
2378	 0.373884233591251 
2379	 0.374071839935073 
2380	 0.373928949334446 
2381	 0.373665351800886 
2382	 0.373441199806877 
2383	 0.372920901363013 
2384	 0.372782971831361 
2385	 0.372933286880737 
2386	 0.373002411099498 
2387	 0.373160516599554 
2388	 0.37337899847093 
2389	 0.373632803126122 
2390	 0.373768178977741 
2391	 0.373958676594141 
2392	 0.374212595561792 
2393	 0.374479680285271 
2394	 0.374689279896538 
2395	 0.375065616584871 
2396	 0.374919786679619 
2397	 0.374310463959287 
2398	 0.37396360634839 
2399	 0.373306094934262 
2400	 0.37322048892204 
2401	 0.373457335764974 
2402	 0.373875565045154 
2403	 0.374532367987828 
2404	 0.374986224638169 
2405	 0.375306165783556 
2406	 0.374929418767818 
2407	 0.374246141731185 
2408	 0.374047573204136 
2409	 0.374062637676343 
2410	 0.374292108452501 
2411	 0.374780784721501 
2412	 0.374934250298974 
2413	 0.374729949035447 
2414	 0.374543194326645 
2415	 0.374581164257839 
2416	 0.374318582214739 
2417	 0.374110629272523 
2418	 0.374833447040707 
2419	 0.375380040254841 
2420	 0.37577169518066 
2421	 0.376090393277459 
2422	 0.375590255103615 
2423	 0.375000085098467 
2424	 0.374635086403933 
2425	 0.374677534538733 
2426	 0.37506611590584 
2427	 0.375172766751948 
2428	 0.374890286907287 
2429	 0.374606365114088 
2430	 0.374393744197826 
2431	 0.373991736964574 
2432	 0.373807557774099 
2433	 0.374186543778292 
2434	 0.37426700590283 
2435	 0.373963116764335 
2436	 0.373925655629096 
2437	 0.373240319921189 
2438	 0.372249593506638 
2439	 0.372183887823802 
2440	 0.372539177831726 
2441	 0.372396016324369 
2442	 0.372152159981704 
2443	 0.371725726532188 
2444	 0.370525261233718 
2445	 0.369975015582156 
2446	 0.369956576676285 
2447	 0.369495993101128 
2448	 0.368845450775622 
2449	 0.367868724869258 
2450	 0.367177532828644 
2451	 0.366923987601145 
2452	 0.367291955136889 
2453	 0.367692588042595 
2454	 0.367240099075242 
2455	 0.366664202446163 
2456	 0.365497506094789 
2457	 0.364505958282271 
2458	 0.364247121799666 
2459	 0.363510900645995 
2460	 0.362887965515708 
2461	 0.362543380402088 
2462	 0.361621122298525 
2463	 0.361436531665618 
2464	 0.361967686063382 
2465	 0.361821245344452 
2466	 0.361830683527029 
2467	 0.360965556299193 
2468	 0.359358698603014 
2469	 0.357726018953816 
2470	 0.355879218195358 
2471	 0.354808379755465 
2472	 0.354459541138914 
2473	 0.355210617827218 
2474	 0.356949762108076 
2475	 0.358415962292197 
2476	 0.357905932083473 
2477	 0.356729466712123 
2478	 0.355782900248029 
2479	 0.354824114813706 
2480	 0.356081261936553 
2481	 0.356108385780337 
2482	 0.355586559721296 
2483	 0.354547046513854 
2484	 0.354560183777247 
2485	 0.354203716195982 
2486	 0.354029548701148 
2487	 0.354035492691811 
2488	 0.352762585365584 
2489	 0.352398174869036 
2490	 0.352998779311005 
2491	 0.353831224795514 
2492	 0.354212010361992 
2493	 0.353211766441511 
2494	 0.352543954600314 
2495	 0.351520567013224 
2496	 0.350629264540229 
2497	 0.351360903214371 
2498	 0.350974654285737 
2499	 0.349972263922814 
2500	 0.350632208392856 
