Wavelength	ProbetaAcolman00028.asd
350	 0.402099594881242 
351	 0.400560267372295 
352	 0.394609906002045 
353	 0.388016347245936 
354	 0.375413118332554 
355	 0.35674219310177 
356	 0.349127752357755 
357	 0.35830728810124 
358	 0.348049518431088 
359	 0.340102300533899 
360	 0.33299966944802 
361	 0.31643677079799 
362	 0.318958433800046 
363	 0.316125962173478 
364	 0.303373727757608 
365	 0.308491959652652 
366	 0.300521867430488 
367	 0.285020259115309 
368	 0.275697513809375 
369	 0.284095861836609 
370	 0.287608285733903 
371	 0.283152466388506 
372	 0.279229958296041 
373	 0.276732581324159 
374	 0.271679316981765 
375	 0.264319900262958 
376	 0.261475651224728 
377	 0.265951432221648 
378	 0.269951503190676 
379	 0.266387190747691 
380	 0.258976795677577 
381	 0.252983924889881 
382	 0.249798899720283 
383	 0.247718453168253 
384	 0.246743363807478 
385	 0.247584649894621 
386	 0.248933192214707 
387	 0.246458642871293 
388	 0.246020868308704 
389	 0.244255371568415 
390	 0.2386280485001 
391	 0.237794465434635 
392	 0.235679132532997 
393	 0.232082024478866 
394	 0.230180672603322 
395	 0.227204349234744 
396	 0.228624104680902 
397	 0.232812371838318 
398	 0.225129769749287 
399	 0.225258017694589 
400	 0.227971881822103 
401	 0.224349830088879 
402	 0.218974572137232 
403	 0.21805202919732 
404	 0.219764947950971 
405	 0.217313151164653 
406	 0.217234173095375 
407	 0.216932201244229 
408	 0.214826074848912 
409	 0.213177559769399 
410	 0.213432304881738 
411	 0.214025082343158 
412	 0.21307274098515 
413	 0.212469923129867 
414	 0.209913994018551 
415	 0.207448620985045 
416	 0.210397471378194 
417	 0.211122816485481 
418	 0.209890512511698 
419	 0.208554920365011 
420	 0.209553219081036 
421	 0.207918039326212 
422	 0.205606942506193 
423	 0.20625132273747 
424	 0.205582509805043 
425	 0.204877137149921 
426	 0.204640809608889 
427	 0.204100760669817 
428	 0.204280946214189 
429	 0.20411492775434 
430	 0.202955318058968 
431	 0.202548970507715 
432	 0.202300267453714 
433	 0.202141639746242 
434	 0.202192766424955 
435	 0.201534873514331 
436	 0.201321734086037 
437	 0.201728399662203 
438	 0.201179838188254 
439	 0.200547858993426 
440	 0.200063182578998 
441	 0.199704258242575 
442	 0.199139848666599 
443	 0.198625241991324 
444	 0.198336985795773 
445	 0.198319149473211 
446	 0.197820085174254 
447	 0.197246615610858 
448	 0.197028697906245 
449	 0.197431783942707 
450	 0.196512045031789 
451	 0.195423174046568 
452	 0.195843247251649 
453	 0.195039101830428 
454	 0.194178117125838 
455	 0.193823229589817 
456	 0.193597972904535 
457	 0.192413690204961 
458	 0.191746975291479 
459	 0.192400300420409 
460	 0.191639087197863 
461	 0.190918975134346 
462	 0.19049861323779 
463	 0.189994123300762 
464	 0.189375025950935 
465	 0.18873777847102 
466	 0.188138220309631 
467	 0.187555360893071 
468	 0.186884998542468 
469	 0.186161597238898 
470	 0.185438820776108 
471	 0.184671740174522 
472	 0.183841411962475 
473	 0.182847802999319 
474	 0.181597088125708 
475	 0.181062251167102 
476	 0.180613632890245 
477	 0.179796468187891 
478	 0.179078151509011 
479	 0.178391031581782 
480	 0.177668320391912 
481	 0.176885759176212 
482	 0.176347867494299 
483	 0.175760409500006 
484	 0.175018049242383 
485	 0.174271914913832 
486	 0.173820534957959 
487	 0.173453418273751 
488	 0.1729528348743 
489	 0.172443377557434 
490	 0.172032541043696 
491	 0.171731151813786 
492	 0.171478380963431 
493	 0.171128703966357 
494	 0.1709150302778 
495	 0.170832527062016 
496	 0.170413396507657 
497	 0.170103516277642 
498	 0.169943752811577 
499	 0.169822852933822 
500	 0.169554276417591 
501	 0.16930023218213 
502	 0.169029758748133 
503	 0.16855555967779 
504	 0.168206756817261 
505	 0.167868797378037 
506	 0.167443883204245 
507	 0.167095894193057 
508	 0.166471120863874 
509	 0.165794327898367 
510	 0.165438879758529 
511	 0.164905880450191 
512	 0.164301784892213 
513	 0.163743564959032 
514	 0.163290747711562 
515	 0.162784614857471 
516	 0.16232063302336 
517	 0.161980146065327 
518	 0.161546908346163 
519	 0.161287660155883 
520	 0.161207873696256 
521	 0.161147563581246 
522	 0.161293542558989 
523	 0.161589451940278 
524	 0.161972474192938 
525	 0.162450411238868 
526	 0.16285363508181 
527	 0.163345685161583 
528	 0.16413751634313 
529	 0.165007192045567 
530	 0.165826560121777 
531	 0.166644290610249 
532	 0.167675032172082 
533	 0.168778947615892 
534	 0.169760126198879 
535	 0.170572455157898 
536	 0.171620108423447 
537	 0.172697065667971 
538	 0.173651299414053 
539	 0.174396197803503 
540	 0.175129856123314 
541	 0.1757515522613 
542	 0.176205200265537 
543	 0.176551002986372 
544	 0.176874841920254 
545	 0.177090970577734 
546	 0.177111688420632 
547	 0.177090002894367 
548	 0.177057811638415 
549	 0.17696783743288 
550	 0.176722583169677 
551	 0.176597477912286 
552	 0.176465553940904 
553	 0.17624562779155 
554	 0.176165229753273 
555	 0.176137166961721 
556	 0.176195138492651 
557	 0.176411404241722 
558	 0.176729712985447 
559	 0.177145601576903 
560	 0.177685678159882 
561	 0.17841158631108 
562	 0.179240809408373 
563	 0.180211986306267 
564	 0.181385334209071 
565	 0.182737316756759 
566	 0.184459740148634 
567	 0.186594962454082 
568	 0.189069558475868 
569	 0.191954354883655 
570	 0.195139238540541 
571	 0.198562852622497 
572	 0.202308898986995 
573	 0.20622484500575 
574	 0.210274863707321 
575	 0.214473410927067 
576	 0.218756937061494 
577	 0.223227399691254 
578	 0.227963345478926 
579	 0.233000684672934 
580	 0.238251571408023 
581	 0.24371765843367 
582	 0.249423762857494 
583	 0.25536893179163 
584	 0.261544488089596 
585	 0.26792409589584 
586	 0.27447520977735 
587	 0.281191191800893 
588	 0.287993741775072 
589	 0.294872687583218 
590	 0.301940194538586 
591	 0.308978563772707 
592	 0.315943516414166 
593	 0.322856677345694 
594	 0.329721829012086 
595	 0.336480911159001 
596	 0.343139585219848 
597	 0.349749594612311 
598	 0.356282882884523 
599	 0.362655748710621 
600	 0.368873812008963 
601	 0.375175887920373 
602	 0.381198433569548 
603	 0.386895997036709 
604	 0.392369865861073 
605	 0.397736789423709 
606	 0.402880461735343 
607	 0.407692456884921 
608	 0.41209400197766 
609	 0.416318942211855 
610	 0.42030907523124 
611	 0.423973637363997 
612	 0.427303702259169 
613	 0.430601792591361 
614	 0.433738005006997 
615	 0.436364388558292 
616	 0.438953272817986 
617	 0.441475617599579 
618	 0.443814515650329 
619	 0.445810832173286 
620	 0.447746815550172 
621	 0.449641969038819 
622	 0.451401259820627 
623	 0.452843661858648 
624	 0.454218099309423 
625	 0.455636673109804 
626	 0.457051215056053 
627	 0.458230662987058 
628	 0.459275317253195 
629	 0.460309055810651 
630	 0.461349438154444 
631	 0.46230462844433 
632	 0.463150269691216 
633	 0.463913721574262 
634	 0.464726611878701 
635	 0.465513375859157 
636	 0.466234022991486 
637	 0.466915232205835 
638	 0.467610216442019 
639	 0.468263116532524 
640	 0.468842452214097 
641	 0.469492792721881 
642	 0.470114343528248 
643	 0.470681971879432 
644	 0.471224960947597 
645	 0.471787863044289 
646	 0.47236724824192 
647	 0.472941383981388 
648	 0.473472697092484 
649	 0.473969295154129 
650	 0.474446066819494 
651	 0.474938910183617 
652	 0.475565445152522 
653	 0.476124090076843 
654	 0.47657796867308 
655	 0.477033923176758 
656	 0.477530016613917 
657	 0.478040522066723 
658	 0.478556053871502 
659	 0.479142446360039 
660	 0.479629906988836 
661	 0.480074625934708 
662	 0.480595788844111 
663	 0.481139841391781 
664	 0.481685776343384 
665	 0.482216172078243 
666	 0.482721181175685 
667	 0.483305269849493 
668	 0.483887475642766 
669	 0.484398128943009 
670	 0.484890261527624 
671	 0.485425378948258 
672	 0.485957681583457 
673	 0.486425799921099 
674	 0.487046210260251 
675	 0.487596540018308 
676	 0.488041738664901 
677	 0.488610623648099 
678	 0.489133928448524 
679	 0.489679193711081 
680	 0.490290608612087 
681	 0.490770104668128 
682	 0.491300232269319 
683	 0.491925609374012 
684	 0.492587571227003 
685	 0.493085068396808 
686	 0.49354819036542 
687	 0.494057498116288 
688	 0.494571754475389 
689	 0.495115705234692 
690	 0.495658064167592 
691	 0.496189113012715 
692	 0.49683120741436 
693	 0.497416775348924 
694	 0.497923655543301 
695	 0.49842896560289 
696	 0.49895768477295 
697	 0.499573879570293 
698	 0.500211466960724 
699	 0.500595780436314 
700	 0.501097230092849 
701	 0.501684958782738 
702	 0.502238129968429 
703	 0.502777938660548 
704	 0.503267154710886 
705	 0.503763329090422 
706	 0.504364096523904 
707	 0.504868345576015 
708	 0.505336358453389 
709	 0.505821774233202 
710	 0.506303600718456 
711	 0.506817574077329 
712	 0.507333134450281 
713	 0.507798686643148 
714	 0.508148003978004 
715	 0.508609064289392 
716	 0.509138007685754 
717	 0.509523760211586 
718	 0.510056265984491 
719	 0.510586972723318 
720	 0.511009300797067 
721	 0.511388051344092 
722	 0.511706861899566 
723	 0.512046586736876 
724	 0.512480460018798 
725	 0.512955639568083 
726	 0.513356950184459 
727	 0.513733118459325 
728	 0.514226295225992 
729	 0.51465834332873 
730	 0.515041676229636 
731	 0.515395033338514 
732	 0.515699809945025 
733	 0.51607030182627 
734	 0.51647885278326 
735	 0.516873052512195 
736	 0.517293827533707 
737	 0.517672029899141 
738	 0.518015511644262 
739	 0.518378573192845 
740	 0.518735342603657 
741	 0.519054788239479 
742	 0.519356324373083 
743	 0.519735456366635 
744	 0.520060445284272 
745	 0.520306022317812 
746	 0.520525813317733 
747	 0.520932919993656 
748	 0.521277682363944 
749	 0.521605824384614 
750	 0.522075965369179 
751	 0.522270356404038 
752	 0.522474356286304 
753	 0.522826708239237 
754	 0.523182100010567 
755	 0.523479348583028 
756	 0.523721565377842 
757	 0.52393857314881 
758	 0.524171386709122 
759	 0.524366624171964 
760	 0.524617025685915 
761	 0.525022001266817 
762	 0.525280827127869 
763	 0.525477287865393 
764	 0.525704821410292 
765	 0.52602553195877 
766	 0.526330380081283 
767	 0.526609262734354 
768	 0.526868784914428 
769	 0.52710337122544 
770	 0.52731979296088 
771	 0.52757704557934 
772	 0.527909525864397 
773	 0.528145528805391 
774	 0.528381976279258 
775	 0.528639240709837 
776	 0.528870847234749 
777	 0.529128695252856 
778	 0.529378521728851 
779	 0.529615181154458 
780	 0.529903298462937 
781	 0.530154610202015 
782	 0.530405847090193 
783	 0.530690596852793 
784	 0.530896847200378 
785	 0.531121440168428 
786	 0.53136470958918 
787	 0.531578059656122 
788	 0.531798418268169 
789	 0.53209124290889 
790	 0.532419154310547 
791	 0.532631925865213 
792	 0.532859833599194 
793	 0.533120326319142 
794	 0.533385312885658 
795	 0.53357146734158 
796	 0.533768257786157 
797	 0.534004672940806 
798	 0.534285304969205 
799	 0.534632128996742 
800	 0.53489002191571 
801	 0.535049378336169 
802	 0.535225273968658 
803	 0.535485782014366 
804	 0.535820058737191 
805	 0.536165454921421 
806	 0.536409355777083 
807	 0.53669088003026 
808	 0.536934672783845 
809	 0.537113956162431 
810	 0.537513482753832 
811	 0.537860836478721 
812	 0.538131377015339 
813	 0.538408246626564 
814	 0.538681631878678 
815	 0.538919987305634 
816	 0.539171740570921 
817	 0.539540205039057 
818	 0.539904041297307 
819	 0.540228000217879 
820	 0.540511911066429 
821	 0.54078774562852 
822	 0.541078005521973 
823	 0.541370469665716 
824	 0.541665425400281 
825	 0.542045193934044 
826	 0.542371325926519 
827	 0.542633158100533 
828	 0.542889074568629 
829	 0.543181626239199 
830	 0.543566349490646 
831	 0.544040627074145 
832	 0.544530715866181 
833	 0.544764578459394 
834	 0.544979974005723 
835	 0.545307825690745 
836	 0.54559330784636 
837	 0.545909443472174 
838	 0.546289034588706 
839	 0.546704480473381 
840	 0.546985968791124 
841	 0.547278781426163 
842	 0.547644871863253 
843	 0.548077858744308 
844	 0.5484207614704 
845	 0.548864665200347 
846	 0.549341409909798 
847	 0.549624041352276 
848	 0.549941015697745 
849	 0.550285274587839 
850	 0.550661485286365 
851	 0.551115974450943 
852	 0.551556847469643 
853	 0.551989486061123 
854	 0.552416793072223 
855	 0.552787190353908 
856	 0.553207102777619 
857	 0.553698914293993 
858	 0.554227928175641 
859	 0.554685275207026 
860	 0.555089758611961 
861	 0.555526141651909 
862	 0.556075397340092 
863	 0.556598313794514 
864	 0.557107021247672 
865	 0.557607670476871 
866	 0.558092383126442 
867	 0.558536179520474 
868	 0.558958831654111 
869	 0.559378543797297 
870	 0.559802625117439 
871	 0.560342980624198 
872	 0.560938353179057 
873	 0.561504806761 
874	 0.56200053072097 
875	 0.562553962238935 
876	 0.563079434224927 
877	 0.563498518529324 
878	 0.563976402114273 
879	 0.564714875743901 
880	 0.565473140746691 
881	 0.565890419616357 
882	 0.566222815841797 
883	 0.566670890425259 
884	 0.567227228509748 
885	 0.567741821466774 
886	 0.568322703140983 
887	 0.568913668067702 
888	 0.569482382792567 
889	 0.570042576457422 
890	 0.570550011302399 
891	 0.571079415235618 
892	 0.571659953217264 
893	 0.572208135795704 
894	 0.572793317548286 
895	 0.573373856283661 
896	 0.573922630513194 
897	 0.574528816001359 
898	 0.575036123533049 
899	 0.575505085301167 
900	 0.576054881016178 
901	 0.576712969064146 
902	 0.577380713496941 
903	 0.577973920961134 
904	 0.578465880672859 
905	 0.579039253221817 
906	 0.579644573117434 
907	 0.580283535751853 
908	 0.580980097218033 
909	 0.581582685700193 
910	 0.582153559000366 
911	 0.582733702980639 
912	 0.583319141297306 
913	 0.583919608455377 
914	 0.584534383046821 
915	 0.585174899571051 
916	 0.585867952671508 
917	 0.586570386083468 
918	 0.58721049518881 
919	 0.58776855172594 
920	 0.588324625295464 
921	 0.58886623805664 
922	 0.589474383417398 
923	 0.590175618911674 
924	 0.590819278153453 
925	 0.5914148021501 
926	 0.591962374877242 
927	 0.592482081021985 
928	 0.593032733305109 
929	 0.593719327503952 
930	 0.594395074626775 
931	 0.594882259462716 
932	 0.595345377602201 
933	 0.596006591176683 
934	 0.596731383202067 
935	 0.597264419692134 
936	 0.597861532378735 
937	 0.598473273581088 
938	 0.599032039465713 
939	 0.599513018861165 
940	 0.600182703198035 
941	 0.600816694905731 
942	 0.601328972046761 
943	 0.601807186061188 
944	 0.602379691193705 
945	 0.602866191422569 
946	 0.603266528109071 
947	 0.603792550395743 
948	 0.604414835836495 
949	 0.605015403776761 
950	 0.605478659188654 
951	 0.605748367688282 
952	 0.606246149408644 
953	 0.606706340777598 
954	 0.607046824171735 
955	 0.607618418996896 
956	 0.608138716734212 
957	 0.60850732722562 
958	 0.608751094169679 
959	 0.609036971047905 
960	 0.609420053287709 
961	 0.609846424881592 
962	 0.610247404012426 
963	 0.610590945182899 
964	 0.611102855014313 
965	 0.611671412340831 
966	 0.612158641137157 
967	 0.612587419634191 
968	 0.613045697227329 
969	 0.613531326277935 
970	 0.614012333762743 
971	 0.614460084888269 
972	 0.614921137984769 
973	 0.615343951152424 
974	 0.615734038046859 
975	 0.616345197404937 
976	 0.616791306435973 
977	 0.617088633028171 
978	 0.617376685301736 
979	 0.617707888429213 
980	 0.618130969508238 
981	 0.618579096148683 
982	 0.619022859260638 
983	 0.619736235726569 
984	 0.619999512786394 
985	 0.620194809280154 
986	 0.620782628600524 
987	 0.621080567477758 
988	 0.621491379224648 
989	 0.621919764273308 
990	 0.622193352952552 
991	 0.622499792176284 
992	 0.622809435793444 
993	 0.623172595270084 
994	 0.623585917070621 
995	 0.623787836553298 
996	 0.624087255867752 
997	 0.624388848724155 
998	 0.624573711187945 
999	 0.624951055915886 
1000	 0.625392808243929 
1001	 0.611078507106378 
1002	 0.611341644070928 
1003	 0.611633334810044 
1004	 0.611897014176195 
1005	 0.612209335870083 
1006	 0.61246292177091 
1007	 0.61267537616075 
1008	 0.612879497065769 
1009	 0.613048814083652 
1010	 0.61324975564693 
1011	 0.613425116414013 
1012	 0.613633662373858 
1013	 0.613922281723353 
1014	 0.614134277919826 
1015	 0.61432092243258 
1016	 0.614494925022596 
1017	 0.614623561608969 
1018	 0.614785376927088 
1019	 0.614941125018178 
1020	 0.615116026085315 
1021	 0.615313722161104 
1022	 0.615514660376874 
1023	 0.615716323885685 
1024	 0.615979532199477 
1025	 0.616176605397716 
1026	 0.616321660732465 
1027	 0.616502858052442 
1028	 0.616683389064825 
1029	 0.616849778039525 
1030	 0.617046108504439 
1031	 0.617238399823652 
1032	 0.617400287428864 
1033	 0.617572262172803 
1034	 0.617808512597831 
1035	 0.618058271392155 
1036	 0.618250066624938 
1037	 0.618445204499286 
1038	 0.618626676329427 
1039	 0.618730315056813 
1040	 0.618900501151521 
1041	 0.619124002898219 
1042	 0.619321693274587 
1043	 0.619524660207156 
1044	 0.619697734724885 
1045	 0.619905437758269 
1046	 0.620135268372453 
1047	 0.620318995048006 
1048	 0.620518836577239 
1049	 0.620691726326006 
1050	 0.620876258167532 
1051	 0.621112110496541 
1052	 0.621294374598744 
1053	 0.621479495361164 
1054	 0.621667394676024 
1055	 0.621837086089716 
1056	 0.621971771499856 
1057	 0.622148657579263 
1058	 0.622345707121292 
1059	 0.622521552847125 
1060	 0.622703290464958 
1061	 0.622881007249453 
1062	 0.623055138528704 
1063	 0.623209599397357 
1064	 0.623329833182629 
1065	 0.623465765110481 
1066	 0.623605972637752 
1067	 0.623713110111977 
1068	 0.623808528728903 
1069	 0.623918433259494 
1070	 0.624006830913153 
1071	 0.624068525754877 
1072	 0.624108235218948 
1073	 0.624211357826255 
1074	 0.624334951884003 
1075	 0.624401008622938 
1076	 0.624465653699904 
1077	 0.624566506818465 
1078	 0.624612229626915 
1079	 0.624659867090962 
1080	 0.624761357211341 
1081	 0.624806864126983 
1082	 0.624854036631706 
1083	 0.624934959082057 
1084	 0.62501846479729 
1085	 0.625084480896948 
1086	 0.62513930935216 
1087	 0.625164256559098 
1088	 0.625227594959445 
1089	 0.625324573095885 
1090	 0.625396606590423 
1091	 0.625446159963969 
1092	 0.625476399453434 
1093	 0.62549418286233 
1094	 0.625541220936984 
1095	 0.625595899849182 
1096	 0.625658886115117 
1097	 0.625718749886368 
1098	 0.625713998805097 
1099	 0.625740332853846 
1100	 0.625766616693629 
1101	 0.625762542492502 
1102	 0.62583588651295 
1103	 0.625889186566694 
1104	 0.625964067296863 
1105	 0.626004231282742 
1106	 0.626040396617034 
1107	 0.626051732869079 
1108	 0.626067647558967 
1109	 0.626127342946999 
1110	 0.626188082282559 
1111	 0.626220770077231 
1112	 0.626228306163733 
1113	 0.626254532130174 
1114	 0.626309112277569 
1115	 0.626342774254998 
1116	 0.626385659741047 
1117	 0.626429908854103 
1118	 0.62646826778297 
1119	 0.626494190056743 
1120	 0.626520413254009 
1121	 0.626554034271128 
1122	 0.626575048681544 
1123	 0.626571174035466 
1124	 0.626570675505283 
1125	 0.626603361975258 
1126	 0.626598636432838 
1127	 0.626579481837884 
1128	 0.626581760605922 
1129	 0.626564106114051 
1130	 0.626568247240469 
1131	 0.626558407234344 
1132	 0.626527304038238 
1133	 0.626493432390707 
1134	 0.626414927609856 
1135	 0.626336955317286 
1136	 0.626263205398202 
1137	 0.626175500522882 
1138	 0.62606040093889 
1139	 0.625950986919434 
1140	 0.62584335834732 
1141	 0.625727175659423 
1142	 0.625589997661715 
1143	 0.625458670138116 
1144	 0.62535608661155 
1145	 0.625217392233491 
1146	 0.625077955777793 
1147	 0.624967083674919 
1148	 0.624790246731444 
1149	 0.624602912201441 
1150	 0.624440510342934 
1151	 0.624259994623852 
1152	 0.624077741326337 
1153	 0.623914188466418 
1154	 0.62371428864691 
1155	 0.623481852920392 
1156	 0.623266359663448 
1157	 0.623051974998622 
1158	 0.622828466382787 
1159	 0.622607892075149 
1160	 0.622370736514386 
1161	 0.622124272582589 
1162	 0.621866441714163 
1163	 0.621624477012436 
1164	 0.621376077029249 
1165	 0.621113861636269 
1166	 0.620866824665199 
1167	 0.620626782515772 
1168	 0.620381759319297 
1169	 0.620134016874155 
1170	 0.619867350270828 
1171	 0.619648485296452 
1172	 0.619440613700917 
1173	 0.619250467055908 
1174	 0.619104406665885 
1175	 0.618948489776352 
1176	 0.61880821808608 
1177	 0.618645519976039 
1178	 0.618466521096391 
1179	 0.61831252184241 
1180	 0.61816713450445 
1181	 0.617975594491005 
1182	 0.617810034520512 
1183	 0.617658113683203 
1184	 0.617464705100932 
1185	 0.617293514046222 
1186	 0.617119584048127 
1187	 0.61694112485025 
1188	 0.616778454716654 
1189	 0.616604172198742 
1190	 0.616474376810142 
1191	 0.616383923861613 
1192	 0.616286114317827 
1193	 0.61621229517783 
1194	 0.61613904125741 
1195	 0.616049225208373 
1196	 0.615984451834773 
1197	 0.615942962088079 
1198	 0.615906915165284 
1199	 0.615860217273435 
1200	 0.615852069057122 
1201	 0.615830978296717 
1202	 0.615773734220113 
1203	 0.615715748365096 
1204	 0.615683105798383 
1205	 0.615685330989718 
1206	 0.615713441968072 
1207	 0.615748130065825 
1208	 0.615825895901483 
1209	 0.615879612125843 
1210	 0.615895512362656 
1211	 0.6159735486492 
1212	 0.616078148975105 
1213	 0.616202065762874 
1214	 0.616349079396805 
1215	 0.616540523110476 
1216	 0.61674580563391 
1217	 0.616996507051353 
1218	 0.617311417436632 
1219	 0.617639402072861 
1220	 0.617965566774703 
1221	 0.618337847357142 
1222	 0.618702151071424 
1223	 0.619076410272848 
1224	 0.619452440049229 
1225	 0.619847673872567 
1226	 0.620214376451859 
1227	 0.620577636151863 
1228	 0.620925967287415 
1229	 0.621270736537877 
1230	 0.621590618686072 
1231	 0.621895997451178 
1232	 0.622183213219212 
1233	 0.622438057300504 
1234	 0.622691319231738 
1235	 0.622931727336915 
1236	 0.623166564149561 
1237	 0.623401147377528 
1238	 0.623619890973415 
1239	 0.623827363124947 
1240	 0.624024474306309 
1241	 0.624209508855378 
1242	 0.62436411606153 
1243	 0.624522578063745 
1244	 0.624667231678691 
1245	 0.624815022820068 
1246	 0.624965657369939 
1247	 0.625095671809984 
1248	 0.62521013724618 
1249	 0.625333313337872 
1250	 0.625446851284987 
1251	 0.625558658543629 
1252	 0.625675313719558 
1253	 0.625789598048826 
1254	 0.62591226808079 
1255	 0.626003405922758 
1256	 0.626089529604844 
1257	 0.626156387344022 
1258	 0.626181618662561 
1259	 0.626214757665601 
1260	 0.626230687427043 
1261	 0.626266696664829 
1262	 0.626310123191883 
1263	 0.626353244243898 
1264	 0.626404474717027 
1265	 0.626476381813769 
1266	 0.626528978761844 
1267	 0.62657990619273 
1268	 0.626615799570666 
1269	 0.626632775143551 
1270	 0.626672249350914 
1271	 0.626705926462795 
1272	 0.626752186763668 
1273	 0.626829702505374 
1274	 0.626879050594222 
1275	 0.626905108516204 
1276	 0.6269536948761 
1277	 0.626998698170363 
1278	 0.627056317730183 
1279	 0.62714520871649 
1280	 0.627212175974679 
1281	 0.6272625069078 
1282	 0.627327415005707 
1283	 0.627387436181023 
1284	 0.627455448179739 
1285	 0.627531413671534 
1286	 0.627630467438486 
1287	 0.627696205072676 
1288	 0.627757909746117 
1289	 0.627801891301824 
1290	 0.627828087879395 
1291	 0.627848006012261 
1292	 0.627851560232833 
1293	 0.627862273568004 
1294	 0.627877078052901 
1295	 0.627866707851418 
1296	 0.627838256880738 
1297	 0.627824059738437 
1298	 0.6277955543053 
1299	 0.627773761824028 
1300	 0.627761587185232 
1301	 0.62775627472216 
1302	 0.627760567954323 
1303	 0.627746517553137 
1304	 0.627752044923302 
1305	 0.627725725633859 
1306	 0.627655942889942 
1307	 0.627598162308199 
1308	 0.627528358555219 
1309	 0.627466272510006 
1310	 0.627403232483933 
1311	 0.627343695985615 
1312	 0.627283812009724 
1313	 0.627223250485997 
1314	 0.627164028674838 
1315	 0.627100255550892 
1316	 0.627054634927091 
1317	 0.627024994105759 
1318	 0.626976122052579 
1319	 0.626933561994741 
1320	 0.626881998155522 
1321	 0.626816392651827 
1322	 0.626747985764615 
1323	 0.626684697726003 
1324	 0.626607615677324 
1325	 0.626505813126317 
1326	 0.62642075484914 
1327	 0.62633060176495 
1328	 0.626256270313573 
1329	 0.626215648464422 
1330	 0.626141803913366 
1331	 0.626054960723066 
1332	 0.625972411777974 
1333	 0.625875420716267 
1334	 0.625776710358333 
1335	 0.625668255191269 
1336	 0.625572542674771 
1337	 0.62544078955289 
1338	 0.625273620212635 
1339	 0.625135029269109 
1340	 0.62499432688316 
1341	 0.624853772879462 
1342	 0.624724148834589 
1343	 0.624584331248409 
1344	 0.624437640407974 
1345	 0.624288449750086 
1346	 0.624149188161916 
1347	 0.623982832149951 
1348	 0.623809723726444 
1349	 0.623611505974436 
1350	 0.623398418886142 
1351	 0.62315669521432 
1352	 0.622896610183266 
1353	 0.622606293672898 
1354	 0.622280298567554 
1355	 0.621946556069251 
1356	 0.621559279194965 
1357	 0.621210944166562 
1358	 0.620858856060354 
1359	 0.620528551844029 
1360	 0.620223192792965 
1361	 0.619934155510869 
1362	 0.619642252304947 
1363	 0.619373533165914 
1364	 0.619123264597008 
1365	 0.618891158449576 
1366	 0.618670243993199 
1367	 0.618469954051662 
1368	 0.618274353824016 
1369	 0.618109446863991 
1370	 0.617894444927927 
1371	 0.617681402412722 
1372	 0.617434722463492 
1373	 0.617152190473237 
1374	 0.616854303570416 
1375	 0.616561218948385 
1376	 0.616200151176667 
1377	 0.615793300347168 
1378	 0.615353186458397 
1379	 0.614848194408599 
1380	 0.614344964178139 
1381	 0.61380430470416 
1382	 0.61326802064228 
1383	 0.612695245445645 
1384	 0.612163767532091 
1385	 0.611664631065874 
1386	 0.611149668158205 
1387	 0.610677665843412 
1388	 0.610168287470396 
1389	 0.609663456369254 
1390	 0.609100258582271 
1391	 0.608508320897104 
1392	 0.607866802398531 
1393	 0.607214931995483 
1394	 0.606521321845518 
1395	 0.605828694779092 
1396	 0.605120675463765 
1397	 0.60443975847888 
1398	 0.603756981983435 
1399	 0.603059435414657 
1400	 0.60240782720556 
1401	 0.601652627844894 
1402	 0.60088051315452 
1403	 0.599983038517697 
1404	 0.599042430135917 
1405	 0.597966347593886 
1406	 0.596774108987054 
1407	 0.595500633331062 
1408	 0.594052765930385 
1409	 0.592675678937482 
1410	 0.59112963708742 
1411	 0.589835650988306 
1412	 0.588496579156876 
1413	 0.587538498553876 
1414	 0.586768263223745 
1415	 0.586280075279733 
1416	 0.586179603253885 
1417	 0.586123482958242 
1418	 0.586370128341207 
1419	 0.586541398627623 
1420	 0.586857186841297 
1421	 0.587043576572937 
1422	 0.587206844404033 
1423	 0.587286813031663 
1424	 0.587269276475339 
1425	 0.587207767006921 
1426	 0.587108716079701 
1427	 0.586968645599254 
1428	 0.586813757489496 
1429	 0.586641913344214 
1430	 0.586480284868633 
1431	 0.586308856480908 
1432	 0.586137316168506 
1433	 0.585964718577745 
1434	 0.585802446434164 
1435	 0.58562853335085 
1436	 0.585480843472467 
1437	 0.585355757770003 
1438	 0.585224509392312 
1439	 0.585098205716853 
1440	 0.584981856657597 
1441	 0.584871848462803 
1442	 0.584765556851542 
1443	 0.584664509369375 
1444	 0.584570656586133 
1445	 0.584482971399719 
1446	 0.58439869822428 
1447	 0.584328716648568 
1448	 0.584251107844555 
1449	 0.584164669019706 
1450	 0.584090311881905 
1451	 0.584012211353527 
1452	 0.583952016933683 
1453	 0.583911465890516 
1454	 0.583867181364675 
1455	 0.583835169308495 
1456	 0.583797988878099 
1457	 0.583761476896408 
1458	 0.583719179312392 
1459	 0.583687673824448 
1460	 0.583631024373989 
1461	 0.583554284061176 
1462	 0.583477421575635 
1463	 0.58336584942074 
1464	 0.583282560138349 
1465	 0.583218400250876 
1466	 0.58314778739365 
1467	 0.583103946492391 
1468	 0.583051421464292 
1469	 0.582996841139028 
1470	 0.582965122161312 
1471	 0.582940427640172 
1472	 0.582930287404857 
1473	 0.582917463076746 
1474	 0.582922013546362 
1475	 0.58289734309471 
1476	 0.582869266221592 
1477	 0.582817013938733 
1478	 0.582749715268652 
1479	 0.582661971303203 
1480	 0.582549933911994 
1481	 0.582436400839257 
1482	 0.582301843511792 
1483	 0.582172449592314 
1484	 0.582049053129439 
1485	 0.581901144886089 
1486	 0.581732804807189 
1487	 0.581574800138928 
1488	 0.581399616542613 
1489	 0.58124145931379 
1490	 0.58109105734376 
1491	 0.580950477221042 
1492	 0.58080269421783 
1493	 0.58069098193955 
1494	 0.580614936105904 
1495	 0.580527101243806 
1496	 0.580447525490858 
1497	 0.580384243112147 
1498	 0.580310975991719 
1499	 0.580272240724436 
1500	 0.580253058912663 
1501	 0.580269056285639 
1502	 0.580305611872044 
1503	 0.580378454216986 
1504	 0.580488991434542 
1505	 0.580629746368912 
1506	 0.580815383527267 
1507	 0.581005784322833 
1508	 0.581229277009115 
1509	 0.581457278794918 
1510	 0.5817034764085 
1511	 0.581939738680105 
1512	 0.582190334394169 
1513	 0.582426911110411 
1514	 0.582645214945936 
1515	 0.582870100525416 
1516	 0.583104089329411 
1517	 0.583319876550279 
1518	 0.5835305112348 
1519	 0.583730844194131 
1520	 0.583897410564427 
1521	 0.584075995829217 
1522	 0.584290772471626 
1523	 0.584534568084732 
1524	 0.584764239298036 
1525	 0.585023728784827 
1526	 0.585263942919117 
1527	 0.585483760588324 
1528	 0.585717120348805 
1529	 0.585967000686849 
1530	 0.586200806271697 
1531	 0.586421809246452 
1532	 0.586652658258744 
1533	 0.586883337520215 
1534	 0.587123249637976 
1535	 0.587367128309731 
1536	 0.58761226499465 
1537	 0.587865930780023 
1538	 0.588115969672551 
1539	 0.588365147891397 
1540	 0.588614767113023 
1541	 0.588860695194118 
1542	 0.58912101494029 
1543	 0.589398779845062 
1544	 0.58964535800438 
1545	 0.589894236009439 
1546	 0.590122283461731 
1547	 0.590329917209292 
1548	 0.590516644525237 
1549	 0.590689663909133 
1550	 0.59085320936439 
1551	 0.590987111980008 
1552	 0.591123082772725 
1553	 0.591264915804335 
1554	 0.591382281143077 
1555	 0.591470698045599 
1556	 0.591573442694555 
1557	 0.591672661191164 
1558	 0.591767508613486 
1559	 0.591873320793328 
1560	 0.591953886114941 
1561	 0.592013426561763 
1562	 0.59207715487812 
1563	 0.592117908584318 
1564	 0.592185561181066 
1565	 0.592266761713606 
1566	 0.592346146710533 
1567	 0.592429025005393 
1568	 0.592528358611446 
1569	 0.592627098724438 
1570	 0.592747016787277 
1571	 0.592908269384951 
1572	 0.593038759480117 
1573	 0.593164989038618 
1574	 0.593289514357824 
1575	 0.593402649500643 
1576	 0.593512820522309 
1577	 0.593619826721232 
1578	 0.593731793860953 
1579	 0.59382586919505 
1580	 0.593947243111696 
1581	 0.594093429941431 
1582	 0.594231386630852 
1583	 0.594385017078173 
1584	 0.594524966361179 
1585	 0.594655293667911 
1586	 0.594787244416631 
1587	 0.594919609856801 
1588	 0.59504263038938 
1589	 0.595149853068758 
1590	 0.595275644772078 
1591	 0.595407124208952 
1592	 0.595535202887558 
1593	 0.595679330833223 
1594	 0.595811236459467 
1595	 0.59593406087855 
1596	 0.596051360694753 
1597	 0.596152498610985 
1598	 0.596272601268948 
1599	 0.596381186772424 
1600	 0.596519035662675 
1601	 0.596698872342066 
1602	 0.596858696435199 
1603	 0.597032568682506 
1604	 0.597187385032039 
1605	 0.59732113780992 
1606	 0.597459194593675 
1607	 0.597600935025157 
1608	 0.597724462999929 
1609	 0.597848560509495 
1610	 0.597948352369687 
1611	 0.598003184971551 
1612	 0.598087856961346 
1613	 0.598171132456247 
1614	 0.598259922409996 
1615	 0.598368864647317 
1616	 0.598473483367376 
1617	 0.598564331219005 
1618	 0.598675579924577 
1619	 0.59883095487563 
1620	 0.598936421511405 
1621	 0.599037446068081 
1622	 0.599109265580039 
1623	 0.599113091005674 
1624	 0.599150945247128 
1625	 0.599200782276246 
1626	 0.599237010596034 
1627	 0.599277298064441 
1628	 0.599311249840875 
1629	 0.599315907725905 
1630	 0.599348111577508 
1631	 0.59940900719345 
1632	 0.599451922309797 
1633	 0.5994940630124 
1634	 0.599538028517369 
1635	 0.599577590586992 
1636	 0.599607799436061 
1637	 0.599641461106778 
1638	 0.599669390255509 
1639	 0.599684884931482 
1640	 0.599695359816614 
1641	 0.599699956963075 
1642	 0.599708441692748 
1643	 0.599709143100091 
1644	 0.599712128801986 
1645	 0.59973585734894 
1646	 0.599730861579874 
1647	 0.599711664088086 
1648	 0.599682508094966 
1649	 0.599651403956543 
1650	 0.599580362641382 
1651	 0.599473490341085 
1652	 0.599372702916945 
1653	 0.599238468197326 
1654	 0.599113073792553 
1655	 0.599008103875481 
1656	 0.59887553311297 
1657	 0.598738328061771 
1658	 0.598566575846835 
1659	 0.598384095481601 
1660	 0.598158119900126 
1661	 0.597893903070977 
1662	 0.597602121810576 
1663	 0.597263355479742 
1664	 0.596906751840825 
1665	 0.596528560960596 
1666	 0.596115341020078 
1667	 0.595665279326695 
1668	 0.595223295213725 
1669	 0.594793912137159 
1670	 0.594277558182266 
1671	 0.593739633487071 
1672	 0.593124285662807 
1673	 0.59241659344136 
1674	 0.591672021266465 
1675	 0.590861694000327 
1676	 0.590066049014734 
1677	 0.58923838863594 
1678	 0.588386171067798 
1679	 0.587532143929653 
1680	 0.586629449681003 
1681	 0.585678853736377 
1682	 0.584697805000074 
1683	 0.583693418074951 
1684	 0.582673877657485 
1685	 0.581595428454727 
1686	 0.580541463575669 
1687	 0.579480303891479 
1688	 0.578413734142785 
1689	 0.577337180682961 
1690	 0.576279945988479 
1691	 0.575224315008304 
1692	 0.574204316563372 
1693	 0.573222345259011 
1694	 0.572218547000923 
1695	 0.571224311218585 
1696	 0.570199320259252 
1697	 0.569155351560331 
1698	 0.568097247840409 
1699	 0.567039323213289 
1700	 0.565979744974576 
1701	 0.564915579804013 
1702	 0.563817020589041 
1703	 0.562693282442905 
1704	 0.561539051114656 
1705	 0.560325697742487 
1706	 0.559112491096697 
1707	 0.558008979978391 
1708	 0.556902011155585 
1709	 0.555864090448528 
1710	 0.554934818088606 
1711	 0.553967445606217 
1712	 0.553088848367615 
1713	 0.552218134899033 
1714	 0.551283875210253 
1715	 0.550400698856538 
1716	 0.549465966796543 
1717	 0.548558083325011 
1718	 0.547700371774873 
1719	 0.546793646372729 
1720	 0.545934488713083 
1721	 0.545082307659981 
1722	 0.544234721028748 
1723	 0.543515315442659 
1724	 0.542859212421235 
1725	 0.542305222479483 
1726	 0.541912607045115 
1727	 0.541648474477398 
1728	 0.541561120766842 
1729	 0.541675242387787 
1730	 0.541970035831171 
1731	 0.542419801200115 
1732	 0.54306775702373 
1733	 0.543849424734054 
1734	 0.544796896532419 
1735	 0.545879748870786 
1736	 0.546965553560924 
1737	 0.548086549191433 
1738	 0.549151438982783 
1739	 0.550112177969973 
1740	 0.551045223210919 
1741	 0.551872097265641 
1742	 0.552628791689354 
1743	 0.553278999696756 
1744	 0.553842559975305 
1745	 0.554281363163508 
1746	 0.55459634001956 
1747	 0.554797895551524 
1748	 0.554858988649847 
1749	 0.554872907680022 
1750	 0.55474683174284 
1751	 0.554635797659852 
1752	 0.554473020486861 
1753	 0.554319010133294 
1754	 0.554153178859175 
1755	 0.553983220746704 
1756	 0.553796146926148 
1757	 0.553598950939881 
1758	 0.553390069367061 
1759	 0.553203470044285 
1760	 0.553096663087197 
1761	 0.553073132577028 
1762	 0.553152696995692 
1763	 0.553361632813795 
1764	 0.553647863096299 
1765	 0.554082929723051 
1766	 0.554642787886281 
1767	 0.555273852480345 
1768	 0.556009135361698 
1769	 0.556771180604448 
1770	 0.557508354756179 
1771	 0.558282343616069 
1772	 0.559050325346848 
1773	 0.55979312666333 
1774	 0.560546347912356 
1775	 0.561224231195917 
1776	 0.561873711981341 
1777	 0.562507894222679 
1778	 0.563057079287224 
1779	 0.563576833146346 
1780	 0.564036528400122 
1781	 0.564428556177748 
1782	 0.564824453650029 
1783	 0.565192617975883 
1784	 0.565520549707799 
1785	 0.565759464215749 
1786	 0.565995976892229 
1787	 0.566181183815374 
1788	 0.56637461960093 
1789	 0.566607919061489 
1790	 0.566761284069222 
1791	 0.566849267495308 
1792	 0.566969415441054 
1793	 0.567044856112487 
1794	 0.567120780425758 
1795	 0.56720605539108 
1796	 0.567229985435054 
1797	 0.567274289967235 
1798	 0.567352891342564 
1799	 0.567440742541638 
1800	 0.567583020807527 
1801	 0.571347151631762 
1802	 0.571676565725353 
1803	 0.572044168416283 
1804	 0.572488326138996 
1805	 0.5730078185664 
1806	 0.573494714577774 
1807	 0.574041309206556 
1808	 0.574523785001297 
1809	 0.575031262842384 
1810	 0.575442823101126 
1811	 0.575815658336743 
1812	 0.57614745230184 
1813	 0.576409439525951 
1814	 0.576654979896724 
1815	 0.576869148058642 
1816	 0.577051255229961 
1817	 0.577217543523082 
1818	 0.577343653058438 
1819	 0.577476422541368 
1820	 0.577581749436978 
1821	 0.577702280510029 
1822	 0.577818998506734 
1823	 0.577940796616149 
1824	 0.578060374745032 
1825	 0.578219830839303 
1826	 0.578393205288823 
1827	 0.578596104247465 
1828	 0.578770485573612 
1829	 0.578978074459935 
1830	 0.579135490931625 
1831	 0.579255394735766 
1832	 0.579384111773859 
1833	 0.579492147111845 
1834	 0.579584511433767 
1835	 0.579674632142208 
1836	 0.579764731728893 
1837	 0.579865563743713 
1838	 0.579959331725216 
1839	 0.580084431740954 
1840	 0.580226186293694 
1841	 0.580374856312137 
1842	 0.580536831875397 
1843	 0.580704926925992 
1844	 0.580924847393291 
1845	 0.581136061034511 
1846	 0.581342533807317 
1847	 0.581551258979654 
1848	 0.581710457719147 
1849	 0.58180771942072 
1850	 0.581928251554712 
1851	 0.582037558641213 
1852	 0.58214994477611 
1853	 0.582241202070052 
1854	 0.582313031971266 
1855	 0.582394531059691 
1856	 0.58244646311328 
1857	 0.582472931937895 
1858	 0.58250156297243 
1859	 0.582475864587108 
1860	 0.582391613686648 
1861	 0.58229404919625 
1862	 0.582181053806308 
1863	 0.582030192219506 
1864	 0.581835318133137 
1865	 0.581590853235313 
1866	 0.581207620902491 
1867	 0.580754050872702 
1868	 0.580233072731937 
1869	 0.579664265776848 
1870	 0.579088868514289 
1871	 0.578461784299009 
1872	 0.577877736397325 
1873	 0.577286183089568 
1874	 0.576705474374867 
1875	 0.576183072116726 
1876	 0.575627446786866 
1877	 0.575093001024182 
1878	 0.574491487079961 
1879	 0.573834729201701 
1880	 0.573206870852515 
1881	 0.572458718233221 
1882	 0.571629977422449 
1883	 0.570757189398533 
1884	 0.569765446945594 
1885	 0.568553003103271 
1886	 0.567274432190757 
1887	 0.565860671950493 
1888	 0.564303398345164 
1889	 0.562778449683866 
1890	 0.561133438255101 
1891	 0.559437966017999 
1892	 0.557714169820763 
1893	 0.555847238117239 
1894	 0.553843370859986 
1895	 0.551848413980047 
1896	 0.549703328140701 
1897	 0.547418519249682 
1898	 0.545302828907317 
1899	 0.543055063871869 
1900	 0.540797890025508 
1901	 0.538615544461266 
1902	 0.536214071746389 
1903	 0.533881891494226 
1904	 0.531600698847696 
1905	 0.529314014017585 
1906	 0.527062636542884 
1907	 0.525043182417578 
1908	 0.522989899605105 
1909	 0.521000079262353 
1910	 0.519110439956763 
1911	 0.517110209002601 
1912	 0.515228524633701 
1913	 0.513366510952014 
1914	 0.511485419613577 
1915	 0.509731463081558 
1916	 0.508102484160228 
1917	 0.506424696376155 
1918	 0.504832195863463 
1919	 0.503326645469735 
1920	 0.501727410641712 
1921	 0.500238485048915 
1922	 0.498774201314304 
1923	 0.497326357815828 
1924	 0.496083702168897 
1925	 0.494878787618893 
1926	 0.493722619710677 
1927	 0.492690752026236 
1928	 0.491639445970213 
1929	 0.490577110280549 
1930	 0.489610155226507 
1931	 0.48869250250717 
1932	 0.487797764492893 
1933	 0.487038257743188 
1934	 0.486291580502501 
1935	 0.485618159010568 
1936	 0.485063782028439 
1937	 0.48454364656701 
1938	 0.484085270531661 
1939	 0.48370794432797 
1940	 0.483401183355353 
1941	 0.483124592656292 
1942	 0.482955249672887 
1943	 0.482840331133429 
1944	 0.482756784681369 
1945	 0.482727849001015 
1946	 0.482761292861805 
1947	 0.482820788064414 
1948	 0.482933717011153 
1949	 0.483120943218073 
1950	 0.483315484987501 
1951	 0.483537622636763 
1952	 0.483798716000453 
1953	 0.4840905038083 
1954	 0.484402707983906 
1955	 0.484797166356688 
1956	 0.485181190942481 
1957	 0.485605276156367 
1958	 0.486071684049516 
1959	 0.486496128343836 
1960	 0.486985202529919 
1961	 0.487492654746482 
1962	 0.488016820412035 
1963	 0.488570069328524 
1964	 0.489183752375522 
1965	 0.489761380582622 
1966	 0.490361953972678 
1967	 0.490932875820102 
1968	 0.491454827516164 
1969	 0.491974921765479 
1970	 0.492472716668945 
1971	 0.492973279374533 
1972	 0.493515523744027 
1973	 0.494054237103897 
1974	 0.494586969831957 
1975	 0.495132910544928 
1976	 0.495662211448406 
1977	 0.496171421998099 
1978	 0.496696101235936 
1979	 0.49721597161008 
1980	 0.497737865578747 
1981	 0.498323524101942 
1982	 0.498882923361366 
1983	 0.499452334344744 
1984	 0.500080017266308 
1985	 0.50063546601983 
1986	 0.501193960681802 
1987	 0.501741964499943 
1988	 0.502250047559219 
1989	 0.502795184211406 
1990	 0.503364291008583 
1991	 0.503908064599689 
1992	 0.504458569001792 
1993	 0.50502235280513 
1994	 0.505522180523813 
1995	 0.506046691392296 
1996	 0.506554065973671 
1997	 0.507069688467809 
1998	 0.507620582357558 
1999	 0.508199778862258 
2000	 0.508749799966366 
2001	 0.509341008239439 
2002	 0.509882165778269 
2003	 0.510382800930394 
2004	 0.510880697895032 
2005	 0.511350580080713 
2006	 0.511827270215686 
2007	 0.512298691466394 
2008	 0.512765681692422 
2009	 0.513226700275049 
2010	 0.513694519452475 
2011	 0.514098201426237 
2012	 0.514501634924375 
2013	 0.514895526220745 
2014	 0.515273841137494 
2015	 0.515634881868875 
2016	 0.516005869694903 
2017	 0.51632352581678 
2018	 0.51661934279686 
2019	 0.516870279139577 
2020	 0.517084915804188 
2021	 0.517260588625932 
2022	 0.517391758598489 
2023	 0.517470288008906 
2024	 0.517498636169666 
2025	 0.51749146778576 
2026	 0.517421757065752 
2027	 0.517284748573153 
2028	 0.517123567716623 
2029	 0.516899105283893 
2030	 0.516666852837783 
2031	 0.516411868341857 
2032	 0.516124432598606 
2033	 0.51578291302345 
2034	 0.51545897545547 
2035	 0.515096088417563 
2036	 0.514760887102463 
2037	 0.514458807038387 
2038	 0.514153997045201 
2039	 0.513874335857319 
2040	 0.513607957030787 
2041	 0.513366322915833 
2042	 0.513118325267911 
2043	 0.512954221026713 
2044	 0.512826285799703 
2045	 0.512758886981756 
2046	 0.51277896839181 
2047	 0.512805990501646 
2048	 0.512852857989012 
2049	 0.512956326463634 
2050	 0.513110844592831 
2051	 0.513287343095144 
2052	 0.513509981005544 
2053	 0.513767846288547 
2054	 0.514039126040256 
2055	 0.514315228284968 
2056	 0.514647819053483 
2057	 0.515005545041624 
2058	 0.515431985873473 
2059	 0.515919740502671 
2060	 0.51642723902851 
2061	 0.517002289129439 
2062	 0.517574991806612 
2063	 0.518156465677507 
2064	 0.518782814664476 
2065	 0.519439305801576 
2066	 0.520112223391804 
2067	 0.520889710818896 
2068	 0.521608539212026 
2069	 0.522333777196283 
2070	 0.523092795161661 
2071	 0.523808137975771 
2072	 0.524483867393431 
2073	 0.525178376571856 
2074	 0.525858800604153 
2075	 0.526555204576273 
2076	 0.527288448031492 
2077	 0.527954767741107 
2078	 0.528648258545835 
2079	 0.529249125312158 
2080	 0.529748882603642 
2081	 0.530252552033517 
2082	 0.53072118186883 
2083	 0.531132841070655 
2084	 0.531584831906259 
2085	 0.532011866192911 
2086	 0.532422281368908 
2087	 0.532830033306431 
2088	 0.533208510831787 
2089	 0.533559261112866 
2090	 0.533897857258976 
2091	 0.534210370614975 
2092	 0.534516086741668 
2093	 0.534817470150311 
2094	 0.535085355998281 
2095	 0.535333121132115 
2096	 0.535569901499743 
2097	 0.535796835426856 
2098	 0.535975728957737 
2099	 0.536133326223698 
2100	 0.536278318721157 
2101	 0.536397721021692 
2102	 0.536472685151464 
2103	 0.536558006143551 
2104	 0.536638197354665 
2105	 0.536699362102917 
2106	 0.536742010520691 
2107	 0.536777412276557 
2108	 0.536803169526866 
2109	 0.536819419797866 
2110	 0.536831299190644 
2111	 0.536818797388573 
2112	 0.53679004873022 
2113	 0.536747525860922 
2114	 0.53666407534703 
2115	 0.536599569090948 
2116	 0.536545101366978 
2117	 0.536472002806114 
2118	 0.536395841399889 
2119	 0.536327790631494 
2120	 0.536235334536112 
2121	 0.53612108851449 
2122	 0.536005251928997 
2123	 0.535898759350243 
2124	 0.535747026175463 
2125	 0.535553589833195 
2126	 0.535380301311917 
2127	 0.535204204350268 
2128	 0.534990001070729 
2129	 0.534781618483224 
2130	 0.534544804377839 
2131	 0.534270336440431 
2132	 0.533966455495584 
2133	 0.533685573328497 
2134	 0.533315676934609 
2135	 0.532830415966163 
2136	 0.532349674365665 
2137	 0.531809766445365 
2138	 0.531190676070549 
2139	 0.530559048860102 
2140	 0.529900923808389 
2141	 0.529206970984047 
2142	 0.528467744948034 
2143	 0.52770827959571 
2144	 0.526906222602059 
2145	 0.526117384918424 
2146	 0.525249336564643 
2147	 0.524481547759707 
2148	 0.523789595025755 
2149	 0.523065711891391 
2150	 0.522410973622474 
2151	 0.521697844707904 
2152	 0.52096107697388 
2153	 0.520176517245618 
2154	 0.519348166316966 
2155	 0.518509442075594 
2156	 0.517686408738901 
2157	 0.51684321615885 
2158	 0.515990562063417 
2159	 0.515187115600261 
2160	 0.51426886786896 
2161	 0.513258761106727 
2162	 0.512299550722072 
2163	 0.511267384591961 
2164	 0.510321395581806 
2165	 0.509431572405023 
2166	 0.508531998160964 
2167	 0.507665168225705 
2168	 0.50679617657476 
2169	 0.505890364792576 
2170	 0.505069829318145 
2171	 0.504228436204506 
2172	 0.503516160903457 
2173	 0.502919822335178 
2174	 0.502367256837466 
2175	 0.501874715227167 
2176	 0.501482592887428 
2177	 0.501073879638244 
2178	 0.500688673202713 
2179	 0.500343178487804 
2180	 0.500016930572506 
2181	 0.499753520388116 
2182	 0.499546079130068 
2183	 0.49935196132606 
2184	 0.49919880989106 
2185	 0.499089618847333 
2186	 0.499009061528603 
2187	 0.498969085529884 
2188	 0.498992737702407 
2189	 0.499027786155436 
2190	 0.499087979214906 
2191	 0.499171823025977 
2192	 0.499314569371699 
2193	 0.499438588619946 
2194	 0.499597375005944 
2195	 0.499719376051225 
2196	 0.499816613228294 
2197	 0.49990626623985 
2198	 0.500001448180164 
2199	 0.500077054342249 
2200	 0.500160236020848 
2201	 0.500261046632255 
2202	 0.50032510219061 
2203	 0.500373155961237 
2204	 0.500402176124527 
2205	 0.50040809695819 
2206	 0.500404818789653 
2207	 0.500376189960897 
2208	 0.50035768952821 
2209	 0.500352871387005 
2210	 0.500301913570399 
2211	 0.500223659526444 
2212	 0.500144377913499 
2213	 0.500010178698924 
2214	 0.499921511633669 
2215	 0.499833321681686 
2216	 0.499791626462263 
2217	 0.499804798193204 
2218	 0.499797979690604 
2219	 0.499847432473383 
2220	 0.499845194656249 
2221	 0.499834256130711 
2222	 0.499750150621433 
2223	 0.499682474580276 
2224	 0.499571437638393 
2225	 0.49944331530878 
2226	 0.499310734220703 
2227	 0.499109282086663 
2228	 0.498868992950509 
2229	 0.498584856967556 
2230	 0.498252016076742 
2231	 0.497866517180885 
2232	 0.497459703935337 
2233	 0.496946140999705 
2234	 0.4963669978959 
2235	 0.495695635840524 
2236	 0.494930401403055 
2237	 0.494097496796076 
2238	 0.493135996592632 
2239	 0.492184632646191 
2240	 0.491226146025958 
2241	 0.490142363513542 
2242	 0.489064916175724 
2243	 0.487803804563135 
2244	 0.486346321802989 
2245	 0.484865987557635 
2246	 0.483223268653662 
2247	 0.481604598032927 
2248	 0.47996384475719 
2249	 0.478278617808655 
2250	 0.476595695013568 
2251	 0.474865482334107 
2252	 0.472915868995206 
2253	 0.471023843356201 
2254	 0.468973095302502 
2255	 0.466863958195934 
2256	 0.464985476410991 
2257	 0.463003985715346 
2258	 0.461062208668962 
2259	 0.45921447719538 
2260	 0.457250268873052 
2261	 0.455163193737298 
2262	 0.453250185883802 
2263	 0.451336089960763 
2264	 0.449516422579802 
2265	 0.447821038964224 
2266	 0.446111241048225 
2267	 0.444492981629258 
2268	 0.442774561324583 
2269	 0.441032924056725 
2270	 0.439329240560419 
2271	 0.437518418193215 
2272	 0.435846253390999 
2273	 0.434324584851127 
2274	 0.432718740296539 
2275	 0.43118259601369 
2276	 0.429544586825342 
2277	 0.427807354621622 
2278	 0.426100017104466 
2279	 0.424311453645034 
2280	 0.422586477077721 
2281	 0.4208793799654 
2282	 0.419212486877995 
2283	 0.417573243445758 
2284	 0.415995638067377 
2285	 0.414366893547036 
2286	 0.412861017384869 
2287	 0.411365603371117 
2288	 0.4099226610677 
2289	 0.408708253295379 
2290	 0.40750388360031 
2291	 0.406350870855335 
2292	 0.405263604804359 
2293	 0.404023630949091 
2294	 0.402775938377096 
2295	 0.401449726740718 
2296	 0.399987246161011 
2297	 0.398523366120177 
2298	 0.396998321240651 
2299	 0.39540397085911 
2300	 0.39374357356635 
2301	 0.39208267358569 
2302	 0.390278606564186 
2303	 0.388700720862254 
2304	 0.387067849686303 
2305	 0.385809177083332 
2306	 0.384706473942855 
2307	 0.383935622807477 
2308	 0.383362313778126 
2309	 0.383327396449685 
2310	 0.38363594397889 
2311	 0.384444165493782 
2312	 0.385928588032293 
2313	 0.387506880665997 
2314	 0.389537858707212 
2315	 0.391616773567556 
2316	 0.394023567137054 
2317	 0.396302345800474 
2318	 0.398860329219453 
2319	 0.40098494072538 
2320	 0.403042341743744 
2321	 0.404704186719227 
2322	 0.405994111636786 
2323	 0.407120208717555 
2324	 0.407901186561829 
2325	 0.40857577662305 
2326	 0.409081030929481 
2327	 0.409374604018536 
2328	 0.409444011687603 
2329	 0.409375925973694 
2330	 0.409071228856009 
2331	 0.408682503897466 
2332	 0.408186002621727 
2333	 0.407561272540713 
2334	 0.406720848673588 
2335	 0.405605971352732 
2336	 0.404145953238042 
2337	 0.402490513757485 
2338	 0.400819915904243 
2339	 0.398879550339082 
2340	 0.396866444328895 
2341	 0.394803351257841 
2342	 0.392439632260999 
2343	 0.390151886059449 
2344	 0.38798848174991 
2345	 0.38587593168333 
2346	 0.38416296037878 
2347	 0.382785754824182 
2348	 0.381768267298613 
2349	 0.38130978151898 
2350	 0.381243336492365 
2351	 0.381568999030993 
2352	 0.382276638001221 
2353	 0.383372705769111 
2354	 0.384662631354167 
2355	 0.386134150277192 
2356	 0.387662868338108 
2357	 0.38919690412128 
2358	 0.390931396549667 
2359	 0.392685536251625 
2360	 0.394484135304172 
2361	 0.396270153084942 
2362	 0.397797075766738 
2363	 0.399220178877116 
2364	 0.400580383346773 
2365	 0.401837622192158 
2366	 0.403010740149516 
2367	 0.403979663838538 
2368	 0.40488854876891 
2369	 0.405588468939371 
2370	 0.406110871217253 
2371	 0.406669781893455 
2372	 0.407090065716496 
2373	 0.407455151878085 
2374	 0.407751452634359 
2375	 0.407996580377282 
2376	 0.4082291114305 
2377	 0.408291251521627 
2378	 0.408361772680033 
2379	 0.408479074072796 
2380	 0.408535007630864 
2381	 0.408629234008565 
2382	 0.408699212267469 
2383	 0.408763769877056 
2384	 0.408850248589152 
2385	 0.408918940932861 
2386	 0.409007312169194 
2387	 0.409170642620785 
2388	 0.409281937484885 
2389	 0.409314524416977 
2390	 0.409459097274809 
2391	 0.409681770295988 
2392	 0.409842401118316 
2393	 0.410025963127917 
2394	 0.410127633349038 
2395	 0.41015528351067 
2396	 0.410212912077483 
2397	 0.410282489818979 
2398	 0.410322004567673 
2399	 0.41031278764503 
2400	 0.410414927530105 
2401	 0.410503344450215 
2402	 0.410710598546737 
2403	 0.410916496411018 
2404	 0.410979153951272 
2405	 0.41104599371218 
2406	 0.411068117016737 
2407	 0.411157419143112 
2408	 0.411322390885679 
2409	 0.411460753933296 
2410	 0.411611066532688 
2411	 0.41176285249121 
2412	 0.411828315856949 
2413	 0.411898442993945 
2414	 0.41206676468671 
2415	 0.412121404976923 
2416	 0.412084192509627 
2417	 0.41211715373392 
2418	 0.412139323636889 
2419	 0.41206755544506 
2420	 0.412116004888339 
2421	 0.412233017407311 
2422	 0.412202792539734 
2423	 0.412231288692845 
2424	 0.412184431926974 
2425	 0.41194206344273 
2426	 0.411807263014784 
2427	 0.411795181241754 
2428	 0.411776149902064 
2429	 0.411828548115254 
2430	 0.411969437805013 
2431	 0.411922781478886 
2432	 0.411792770183906 
2433	 0.411805537646265 
2434	 0.411658163871541 
2435	 0.411463237054389 
2436	 0.411387986128981 
2437	 0.41123137506286 
2438	 0.411090231099294 
2439	 0.410902617406629 
2440	 0.410557894497274 
2441	 0.410227513784478 
2442	 0.409852487488212 
2443	 0.409402846533856 
2444	 0.409004378889911 
2445	 0.408538683781468 
2446	 0.408048987541305 
2447	 0.407707288913155 
2448	 0.407404807081208 
2449	 0.407062888076302 
2450	 0.406647213375185 
2451	 0.406137104521961 
2452	 0.405605259114926 
2453	 0.405053272151877 
2454	 0.404549166204064 
2455	 0.404040770858099 
2456	 0.403616396533213 
2457	 0.403325979061271 
2458	 0.402951671791141 
2459	 0.402634539159145 
2460	 0.402377607428102 
2461	 0.401989948956853 
2462	 0.401659182643011 
2463	 0.401552954991963 
2464	 0.401127462541741 
2465	 0.400583670446919 
2466	 0.40018950504266 
2467	 0.399377562605751 
2468	 0.398862405804674 
2469	 0.39878183578626 
2470	 0.398540492421446 
2471	 0.398327175775346 
2472	 0.39804992607881 
2473	 0.39761880099711 
2474	 0.397338747950659 
2475	 0.397237254537605 
2476	 0.39712337437907 
2477	 0.397094974778565 
2478	 0.397065041080119 
2479	 0.397010818830145 
2480	 0.397132020717014 
2481	 0.397083709091593 
2482	 0.396627652787301 
2483	 0.396642038809341 
2484	 0.396443541580486 
2485	 0.396013738939853 
2486	 0.396124226593469 
2487	 0.396064281417581 
2488	 0.395921650482951 
2489	 0.395972508107202 
2490	 0.396127271969117 
2491	 0.396166159656054 
2492	 0.39573886079219 
2493	 0.395612466731397 
2494	 0.395608426615692 
2495	 0.395135686714052 
2496	 0.395072025322998 
2497	 0.395226344863463 
2498	 0.395180620546757 
2499	 0.395895966143577 
2500	 0.397266979705614 
