Wavelength	ProbetaAcolman00030.asd
350	 0.762025386815554 
351	 0.770894258175216 
352	 0.758403478771261 
353	 0.723465628354935 
354	 0.72685752183958 
355	 0.718677328972322 
356	 0.708483442558149 
357	 0.707267115808564 
358	 0.688062874237466 
359	 0.667467654536359 
360	 0.656269633192505 
361	 0.658509317780894 
362	 0.662825544961888 
363	 0.65986944511707 
364	 0.649445632563288 
365	 0.642431469040809 
366	 0.625962298709024 
367	 0.618469412100459 
368	 0.628906113319296 
369	 0.619832580747542 
370	 0.610332064756086 
371	 0.604714256962405 
372	 0.599631778145691 
373	 0.600102908242995 
374	 0.596752509387276 
375	 0.586704134299294 
376	 0.578355768700363 
377	 0.574620049460067 
378	 0.572296975211957 
379	 0.56780227425713 
380	 0.561237695476728 
381	 0.551145046636913 
382	 0.5443703157997 
383	 0.548972532483713 
384	 0.549041767851773 
385	 0.54222420277858 
386	 0.532649206755309 
387	 0.53082827715343 
388	 0.523232812432161 
389	 0.518610928406861 
390	 0.524485029593954 
391	 0.525325185799832 
392	 0.52138901603276 
393	 0.51389853947322 
394	 0.505407435070588 
395	 0.50475580017779 
396	 0.507552089521266 
397	 0.508784140488573 
398	 0.504994350220304 
399	 0.505114757422472 
400	 0.507245752650208 
401	 0.507463087995583 
402	 0.506619991979619 
403	 0.507521134819564 
404	 0.511457840979749 
405	 0.517995810926023 
406	 0.519973371466701 
407	 0.523428448177782 
408	 0.530905860536853 
409	 0.534862047017901 
410	 0.541820271836569 
411	 0.550786167996835 
412	 0.558677855080489 
413	 0.564619601546328 
414	 0.570660954408038 
415	 0.578199563491726 
416	 0.587690139726805 
417	 0.59449022185158 
418	 0.601511149340952 
419	 0.610148554440523 
420	 0.615283136180172 
421	 0.620334651652257 
422	 0.625663722941522 
423	 0.630608806729971 
424	 0.636660387715413 
425	 0.642265363158964 
426	 0.646802123158752 
427	 0.651008806205291 
428	 0.655095395928268 
429	 0.658335340721525 
430	 0.660648431274595 
431	 0.664393982629589 
432	 0.667545616529156 
433	 0.670003413384407 
434	 0.67268269760002 
435	 0.675496279114183 
436	 0.678359438773536 
437	 0.680763849817124 
438	 0.681538393580691 
439	 0.683058329659756 
440	 0.68488114485123 
441	 0.686161678515385 
442	 0.68807139299647 
443	 0.688966984827256 
444	 0.689043340764383 
445	 0.689830291641751 
446	 0.689877536668952 
447	 0.690048256572166 
448	 0.690848308022692 
449	 0.691467526024111 
450	 0.690803293013738 
451	 0.689698020130046 
452	 0.689464069018448 
453	 0.689195711349472 
454	 0.689014293315604 
455	 0.688687910117989 
456	 0.687585601399337 
457	 0.686950026794692 
458	 0.686359727570334 
459	 0.685362249594733 
460	 0.684499533828716 
461	 0.683587258232179 
462	 0.682661575546449 
463	 0.681840826563712 
464	 0.68093899160308 
465	 0.680029570751121 
466	 0.679128433969174 
467	 0.678108434655879 
468	 0.677435937858289 
469	 0.676976929175543 
470	 0.676446151054079 
471	 0.675710402668428 
472	 0.675198371338813 
473	 0.674824837179648 
474	 0.674142426967971 
475	 0.673661319530353 
476	 0.67319442799976 
477	 0.672756775111834 
478	 0.673088930024875 
479	 0.6733399186401 
480	 0.673615005534338 
481	 0.674237820222587 
482	 0.674460021363285 
483	 0.675025596471311 
484	 0.676135976358647 
485	 0.677285408329943 
486	 0.678294794315933 
487	 0.679520129374013 
488	 0.681254413378413 
489	 0.683262226958713 
490	 0.685112372754297 
491	 0.687077691400446 
492	 0.689730577475099 
493	 0.692240382709908 
494	 0.695044895005395 
495	 0.698301820501653 
496	 0.701464528450821 
497	 0.704967378870852 
498	 0.708688073154468 
499	 0.712445256394867 
500	 0.716538439535657 
501	 0.720844468053839 
502	 0.725296391893975 
503	 0.729895294737787 
504	 0.734686674325429 
505	 0.739477840457535 
506	 0.744205673942473 
507	 0.749190833488319 
508	 0.754238016769667 
509	 0.75926585257765 
510	 0.764265887237679 
511	 0.769474697493036 
512	 0.774670199800225 
513	 0.779766629851377 
514	 0.78493134469982 
515	 0.79008031522017 
516	 0.795231985630677 
517	 0.800360673107711 
518	 0.805181715638405 
519	 0.809809765871696 
520	 0.814346508140559 
521	 0.818861156579228 
522	 0.823350528321105 
523	 0.827836728939557 
524	 0.832201981611693 
525	 0.836012853078133 
526	 0.83987567909323 
527	 0.843686405669702 
528	 0.84718214166463 
529	 0.850706586595784 
530	 0.854178773758187 
531	 0.857485033772358 
532	 0.860502535078253 
533	 0.863591799221692 
534	 0.866536852780576 
535	 0.869183660467796 
536	 0.871957015710415 
537	 0.874555023622883 
538	 0.876983796808895 
539	 0.879411290150568 
540	 0.881742691833232 
541	 0.88392875053252 
542	 0.88600451884831 
543	 0.888128528569711 
544	 0.890047061335438 
545	 0.891939230188207 
546	 0.894005747135506 
547	 0.895936845926278 
548	 0.897721459847513 
549	 0.899421027895868 
550	 0.901140624608775 
551	 0.902822042623466 
552	 0.904475376725705 
553	 0.90611157398868 
554	 0.907714375300641 
555	 0.909263664464689 
556	 0.910746770239987 
557	 0.912182154687413 
558	 0.913789831597787 
559	 0.915301098639717 
560	 0.916618894070297 
561	 0.917934778234579 
562	 0.919311669892652 
563	 0.92065652029424 
564	 0.921896922102139 
565	 0.923202088402433 
566	 0.924573273998488 
567	 0.925985040234131 
568	 0.927384419661067 
569	 0.928622527858803 
570	 0.929800547380297 
571	 0.931020428306549 
572	 0.93229149099306 
573	 0.933535084191205 
574	 0.934741951681499 
575	 0.935915562490312 
576	 0.936922342507159 
577	 0.937948942660437 
578	 0.939038331846446 
579	 0.940051096634186 
580	 0.941074775900727 
581	 0.942085203807079 
582	 0.943107717104772 
583	 0.944422656372858 
584	 0.945557589436006 
585	 0.946580062283862 
586	 0.947834013727438 
587	 0.948961501880358 
588	 0.949961291131935 
589	 0.950981399924099 
590	 0.952353181969116 
591	 0.953502486310536 
592	 0.954461762464542 
593	 0.955475591404003 
594	 0.956834407566467 
595	 0.957968221036422 
596	 0.958890580376232 
597	 0.960125189143302 
598	 0.961426441213447 
599	 0.962484512148966 
600	 0.963285173298542 
601	 0.964554826202877 
602	 0.96574248526497 
603	 0.966738765594077 
604	 0.967670118854932 
605	 0.968910877247452 
606	 0.970082650714942 
607	 0.971006335383277 
608	 0.971826055292986 
609	 0.973044903582753 
610	 0.974214490188246 
611	 0.974955863534052 
612	 0.975934459376776 
613	 0.977115796014208 
614	 0.978218928210845 
615	 0.978901787734325 
616	 0.979916266040187 
617	 0.98108218041215 
618	 0.982116312033112 
619	 0.98275446769518 
620	 0.98366096393974 
621	 0.984751599740128 
622	 0.985716565616984 
623	 0.986508476321638 
624	 0.987326301237564 
625	 0.988300481572596 
626	 0.989454243466654 
627	 0.99024900870575 
628	 0.99090763761303 
629	 0.991724811542833 
630	 0.992829435669538 
631	 0.993715884287356 
632	 0.994381532512272 
633	 0.995081739389873 
634	 0.99605672907898 
635	 0.996954660814399 
636	 0.997652379840881 
637	 0.998372990836289 
638	 0.999277268133026 
639	 1.00012847518987 
640	 1.0007295279438 
641	 1.00132724237496 
642	 1.00216287853572 
643	 1.00310732071347 
644	 1.00382791559902 
645	 1.00446204116045 
646	 1.00514356802474 
647	 1.00590614541887 
648	 1.00662622967833 
649	 1.00724272489551 
650	 1.00785663456867 
651	 1.00857568992236 
652	 1.00929537453575 
653	 1.01001603902892 
654	 1.01063579414961 
655	 1.01101885910156 
656	 1.01178410447177 
657	 1.01256761825988 
658	 1.01311336073081 
659	 1.01373381487675 
660	 1.01438352732518 
661	 1.01501480159725 
662	 1.01559630407799 
663	 1.01625181599231 
664	 1.01684958666808 
665	 1.01741873447088 
666	 1.01814780646852 
667	 1.01871329708808 
668	 1.01923392224158 
669	 1.01983789769063 
670	 1.02044526698593 
671	 1.02107170288599 
672	 1.02163071125331 
673	 1.02206482227781 
674	 1.02282932656442 
675	 1.02346895035059 
676	 1.02388303047041 
677	 1.02448176651256 
678	 1.0250654563856 
679	 1.02558762364141 
680	 1.02607780623674 
681	 1.02668631925207 
682	 1.02739775231067 
683	 1.02802068012089 
684	 1.02833402057321 
685	 1.02866689716854 
686	 1.0291878908774 
687	 1.02985135444649 
688	 1.03034907015577 
689	 1.030888517573 
690	 1.03152649412944 
691	 1.03220908223409 
692	 1.0326548254158 
693	 1.03296511316064 
694	 1.03330996110389 
695	 1.03386823231245 
696	 1.03452315870354 
697	 1.03504298772806 
698	 1.03542415526982 
699	 1.03603119381624 
700	 1.03667470528028 
701	 1.0371646090078 
702	 1.0374323458722 
703	 1.0378307821066 
704	 1.03842462308538 
705	 1.03905483844588 
706	 1.03945206155269 
707	 1.0398793929323 
708	 1.04039470421301 
709	 1.04093440575199 
710	 1.04127887231209 
711	 1.04164608277838 
712	 1.04205375918589 
713	 1.04247087511685 
714	 1.04292844698185 
715	 1.04339798200934 
716	 1.04378547199497 
717	 1.04399700674599 
718	 1.04443308242767 
719	 1.04488910430921 
720	 1.04521500767819 
721	 1.0454920205357 
722	 1.04585180905519 
723	 1.0462531344099 
724	 1.04662267028248 
725	 1.04701006463989 
726	 1.04741741267577 
727	 1.04779337500767 
728	 1.04807018553958 
729	 1.04839536647839 
730	 1.04884765541612 
731	 1.04934168704129 
732	 1.04954692655947 
733	 1.0497492489634 
734	 1.05003396680805 
735	 1.050407786109 
736	 1.05083341184135 
737	 1.05119455090256 
738	 1.05146650631384 
739	 1.05170160571363 
740	 1.05200059184597 
741	 1.05238193623372 
742	 1.05281526953657 
743	 1.05322383662385 
744	 1.05352233823069 
745	 1.05372104463034 
746	 1.05390614448419 
747	 1.05429933576795 
748	 1.05472185316963 
749	 1.05509391589955 
750	 1.05539740275092 
751	 1.0555613085262 
752	 1.05588170184922 
753	 1.05638089995421 
754	 1.05669298152463 
755	 1.05698960720429 
756	 1.05720567655485 
757	 1.05735248129698 
758	 1.05780148477438 
759	 1.05827778417863 
760	 1.05864352576817 
761	 1.05885822898752 
762	 1.05902512559411 
763	 1.05928781985047 
764	 1.05964954350562 
765	 1.05996550255841 
766	 1.06019829363539 
767	 1.06043088446106 
768	 1.06073240748607 
769	 1.06108869715971 
770	 1.06137910224186 
771	 1.06166911416581 
772	 1.06204661376152 
773	 1.06233759027111 
774	 1.06259738494588 
775	 1.06284127239309 
776	 1.06305035238875 
777	 1.06327932249412 
778	 1.06362126966073 
779	 1.0640342232782 
780	 1.0642495337298 
781	 1.06439797677383 
782	 1.06462535690657 
783	 1.06500219999484 
784	 1.06532739978087 
785	 1.06562870094673 
786	 1.06587582632628 
787	 1.06603126435673 
788	 1.06621586467024 
789	 1.06654280452573 
790	 1.06691093784918 
791	 1.06699794785543 
792	 1.06722927023255 
793	 1.06753611531526 
794	 1.06778444634173 
795	 1.06793187503821 
796	 1.06813630871873 
797	 1.06844320850399 
798	 1.06877896018867 
799	 1.06873067590262 
800	 1.06893688800077 
801	 1.0694189788945 
802	 1.06970651141912 
803	 1.0698933353363 
804	 1.07003059914538 
805	 1.07018577359488 
806	 1.07044445605383 
807	 1.07055189467542 
808	 1.07075586314755 
809	 1.07121499672094 
810	 1.07146466975001 
811	 1.07155848718944 
812	 1.0716023155708 
813	 1.07171616223605 
814	 1.07184984845718 
815	 1.07221283376693 
816	 1.0726328581067 
817	 1.07265043684072 
818	 1.07268580304631 
819	 1.07285603693135 
820	 1.07314763657405 
821	 1.07341902843129 
822	 1.07354939843798 
823	 1.07367439696744 
824	 1.07389869588661 
825	 1.07398657519895 
826	 1.07409711603496 
827	 1.07429013170977 
828	 1.07456415025572 
829	 1.07489949164231 
830	 1.0750135980013 
831	 1.07499751955615 
832	 1.07522542842609 
833	 1.07525884730842 
834	 1.07531165039081 
835	 1.07554126049331 
836	 1.07587258598523 
837	 1.07595497858043 
838	 1.07594672683283 
839	 1.07605569537442 
840	 1.07622274632952 
841	 1.07646238568533 
842	 1.07666354492143 
843	 1.0767259439645 
844	 1.07684153576901 
845	 1.07702161456233 
846	 1.07713790959527 
847	 1.07703508099327 
848	 1.07716591686493 
849	 1.07746110336884 
850	 1.07771091919956 
851	 1.07764896797042 
852	 1.07779428663073 
853	 1.07796529184621 
854	 1.07799731233567 
855	 1.0780744375798 
856	 1.07824815439823 
857	 1.0784796225127 
858	 1.07866962901918 
859	 1.07864160545556 
860	 1.07866087930051 
861	 1.07878348116113 
862	 1.07894159071568 
863	 1.079106028589 
864	 1.07920525824732 
865	 1.07922559280069 
866	 1.07921790882816 
867	 1.07932036215201 
868	 1.07940889059219 
869	 1.07946044810891 
870	 1.07963214095334 
871	 1.07968568951212 
872	 1.07966529145261 
873	 1.07968741771086 
874	 1.07987738712833 
875	 1.08014354762308 
876	 1.08029628830557 
877	 1.08024355326386 
878	 1.08033760280405 
879	 1.0802867492293 
880	 1.08012325102775 
881	 1.08007047931243 
882	 1.08044841826009 
883	 1.08057812082257 
884	 1.08040767866087 
885	 1.08037879516563 
886	 1.08032890908395 
887	 1.08038877915207 
888	 1.08052709309931 
889	 1.08051972778511 
890	 1.08057471798736 
891	 1.08064606940963 
892	 1.08066524685275 
893	 1.08060698326967 
894	 1.08045183083908 
895	 1.08038877298365 
896	 1.0805155449625 
897	 1.08057970984389 
898	 1.08056774600294 
899	 1.08049124842324 
900	 1.08039757891268 
901	 1.08038043377097 
902	 1.08039138069608 
903	 1.08047523143947 
904	 1.08065958633553 
905	 1.08063568946594 
906	 1.08067737792343 
907	 1.08079646052123 
908	 1.08082556144575 
909	 1.08096470899873 
910	 1.08103121758616 
911	 1.0810171309177 
912	 1.08110304268997 
913	 1.08109564190474 
914	 1.08107389465085 
915	 1.08110255436694 
916	 1.08117222619056 
917	 1.08142417998755 
918	 1.08167262055815 
919	 1.08176711965647 
920	 1.08175233891547 
921	 1.08184515557251 
922	 1.08194797564224 
923	 1.08195319230571 
924	 1.08194489672847 
925	 1.08212144670965 
926	 1.08226909302814 
927	 1.08216926717892 
928	 1.08204459077701 
929	 1.08222551156971 
930	 1.08242809107342 
931	 1.08227640505995 
932	 1.08222180092894 
933	 1.08224786797571 
934	 1.08237149261712 
935	 1.08257101262106 
936	 1.08255970702825 
937	 1.08247554608361 
938	 1.08243115431033 
939	 1.08247414970583 
940	 1.08248420142557 
941	 1.08258578515714 
942	 1.08276584574147 
943	 1.08286805947665 
944	 1.08273214087735 
945	 1.08255671730545 
946	 1.08247079670135 
947	 1.08245916258334 
948	 1.08236275786112 
949	 1.08229138461507 
950	 1.0822635486607 
951	 1.08214395206626 
952	 1.08200060192147 
953	 1.08195916494721 
954	 1.0819766852924 
955	 1.0817718656522 
956	 1.08148433323972 
957	 1.08120988614223 
958	 1.08098549050503 
959	 1.08075837190229 
960	 1.08037328585972 
961	 1.08005935514084 
962	 1.07993085056924 
963	 1.07969794209306 
964	 1.07961277719773 
965	 1.07973204575495 
966	 1.07996146412671 
967	 1.08001489490884 
968	 1.08001155413285 
969	 1.08007066999392 
970	 1.08025538738019 
971	 1.0804967194507 
972	 1.08053758146134 
973	 1.08046522749902 
974	 1.08043130893294 
975	 1.08041046413391 
976	 1.08049797781329 
977	 1.08068952258666 
978	 1.08085736999581 
979	 1.08060939276351 
980	 1.08060734220129 
981	 1.08069763241837 
982	 1.08063946589069 
983	 1.08091059719742 
984	 1.08081483506822 
985	 1.08054866385712 
986	 1.08047036201654 
987	 1.08030183463264 
988	 1.08033870523821 
989	 1.080557537513 
990	 1.08077438436781 
991	 1.08072051856331 
992	 1.08072524956354 
993	 1.08069947480844 
994	 1.08055259103645 
995	 1.08072629768032 
996	 1.08088437367137 
997	 1.08099139053723 
998	 1.08105395390987 
999	 1.08081790846766 
1000	 1.08074557032927 
1001	 1.07826136091529 
1002	 1.07826663558434 
1003	 1.0782320429836 
1004	 1.07822927080809 
1005	 1.07827261568485 
1006	 1.07829828146098 
1007	 1.07832687432661 
1008	 1.0783108998804 
1009	 1.07827797219882 
1010	 1.07826666706741 
1011	 1.07821476052567 
1012	 1.07819609235359 
1013	 1.07824681788326 
1014	 1.07824712225102 
1015	 1.07821409825068 
1016	 1.07818549638829 
1017	 1.07816407579152 
1018	 1.07807441027388 
1019	 1.07796137401959 
1020	 1.07787161011153 
1021	 1.07785451865319 
1022	 1.07788524089075 
1023	 1.07789888314778 
1024	 1.07800764808982 
1025	 1.07802891378058 
1026	 1.07791361773846 
1027	 1.07795647368548 
1028	 1.07808000672597 
1029	 1.07816270012173 
1030	 1.07824312565528 
1031	 1.0783724291868 
1032	 1.07848318349634 
1033	 1.07857965549381 
1034	 1.07874375886566 
1035	 1.07894242396295 
1036	 1.07907589387328 
1037	 1.07916648541912 
1038	 1.07923270692951 
1039	 1.07923567056894 
1040	 1.07931063422468 
1041	 1.0794211377197 
1042	 1.07948552574717 
1043	 1.07955961575636 
1044	 1.07961902659925 
1045	 1.07967220177401 
1046	 1.0797700030675 
1047	 1.07991900238729 
1048	 1.08011413425363 
1049	 1.08023940941738 
1050	 1.08026968847171 
1051	 1.08032270602679 
1052	 1.08037717478013 
1053	 1.08047622625016 
1054	 1.08064193756136 
1055	 1.08077068377775 
1056	 1.08089632310253 
1057	 1.08102337685049 
1058	 1.08113045738999 
1059	 1.08126472719027 
1060	 1.08143053605955 
1061	 1.08157842915184 
1062	 1.0817305573034 
1063	 1.08184294110109 
1064	 1.08186732087123 
1065	 1.08193093489504 
1066	 1.08200822975348 
1067	 1.08206864404764 
1068	 1.082172503738 
1069	 1.08232851656358 
1070	 1.08239832118125 
1071	 1.08243531233575 
1072	 1.08240044788795 
1073	 1.08241618919505 
1074	 1.08244426856272 
1075	 1.08253323542143 
1076	 1.08272851102783 
1077	 1.08285642631938 
1078	 1.08283717681503 
1079	 1.08285825908738 
1080	 1.08288920260295 
1081	 1.08288065503022 
1082	 1.08299386823853 
1083	 1.08309631122285 
1084	 1.08310196113279 
1085	 1.08308968998024 
1086	 1.08310217794418 
1087	 1.08309598056884 
1088	 1.08309672127125 
1089	 1.08313589898619 
1090	 1.08321790419034 
1091	 1.08326815761587 
1092	 1.08328495722281 
1093	 1.08329711483039 
1094	 1.08328714686218 
1095	 1.08329028943412 
1096	 1.08327671606003 
1097	 1.08321911439491 
1098	 1.08319083856725 
1099	 1.08319068132887 
1100	 1.08319015633383 
1101	 1.08320011995055 
1102	 1.08319957210996 
1103	 1.08319755151469 
1104	 1.08317953957377 
1105	 1.08314841199266 
1106	 1.0831343547582 
1107	 1.08313686327667 
1108	 1.08306881941619 
1109	 1.08299485906433 
1110	 1.08296230206068 
1111	 1.08292265174237 
1112	 1.08288539313435 
1113	 1.08284550594294 
1114	 1.08276996373531 
1115	 1.08264933005005 
1116	 1.08250958713755 
1117	 1.08238053324763 
1118	 1.08228635027397 
1119	 1.08221082524696 
1120	 1.08212767063176 
1121	 1.08207139388491 
1122	 1.08202437989625 
1123	 1.08191365068409 
1124	 1.08173735597457 
1125	 1.08157153462719 
1126	 1.08137709421546 
1127	 1.0811036145817 
1128	 1.08081719447489 
1129	 1.08053854783827 
1130	 1.08023170554368 
1131	 1.07993626625038 
1132	 1.07965889125627 
1133	 1.07931332557221 
1134	 1.078923969648 
1135	 1.07849714422996 
1136	 1.07801516978412 
1137	 1.07752655021347 
1138	 1.07700887177902 
1139	 1.07645548205584 
1140	 1.07584399427236 
1141	 1.07530661160705 
1142	 1.07474175645318 
1143	 1.0741820763218 
1144	 1.07364185095022 
1145	 1.07301369817613 
1146	 1.07239491797764 
1147	 1.07177322110917 
1148	 1.07116029415127 
1149	 1.07060980063613 
1150	 1.07005127789722 
1151	 1.06947697704941 
1152	 1.06884809223823 
1153	 1.06819378624136 
1154	 1.06750831524547 
1155	 1.06678010435219 
1156	 1.06601770753038 
1157	 1.06523581802213 
1158	 1.0644318775961 
1159	 1.06356888645576 
1160	 1.06270611515769 
1161	 1.06188760409243 
1162	 1.06098361958086 
1163	 1.06010283515835 
1164	 1.05919629001552 
1165	 1.05826197212291 
1166	 1.05740492157752 
1167	 1.05648697164802 
1168	 1.05561204943461 
1169	 1.05476612448218 
1170	 1.0538957317943 
1171	 1.05310768369856 
1172	 1.05238249331652 
1173	 1.05168692040867 
1174	 1.05103314972707 
1175	 1.05042931137997 
1176	 1.04988477136682 
1177	 1.04935193611628 
1178	 1.04885684707704 
1179	 1.04836088487802 
1180	 1.04792638368934 
1181	 1.04756157503662 
1182	 1.04723087847056 
1183	 1.04699993032648 
1184	 1.04677693957125 
1185	 1.04653215122349 
1186	 1.04637782539989 
1187	 1.04627037080849 
1188	 1.04620288540038 
1189	 1.04621714747892 
1190	 1.04621528478621 
1191	 1.04621923659084 
1192	 1.04627052270294 
1193	 1.04633111562571 
1194	 1.04644571557618 
1195	 1.04660708301803 
1196	 1.04680872549829 
1197	 1.04705964654893 
1198	 1.04734155680899 
1199	 1.04763534684496 
1200	 1.04790704589939 
1201	 1.04816801219135 
1202	 1.04845795148674 
1203	 1.04877538297609 
1204	 1.04908861593789 
1205	 1.04937378615048 
1206	 1.04962329353133 
1207	 1.04992941284863 
1208	 1.05022731802499 
1209	 1.05056565751175 
1210	 1.05096328309693 
1211	 1.05133899449167 
1212	 1.05172406527914 
1213	 1.05210654579935 
1214	 1.05248866607984 
1215	 1.05288689849785 
1216	 1.05329401782274 
1217	 1.0536916126074 
1218	 1.05410642916852 
1219	 1.05450255527934 
1220	 1.05488005213902 
1221	 1.05528748114911 
1222	 1.05566643971373 
1223	 1.05605675547143 
1224	 1.05642550078635 
1225	 1.05678569737048 
1226	 1.0571194056147 
1227	 1.05742885857809 
1228	 1.05774030829957 
1229	 1.05803279222166 
1230	 1.05833494255445 
1231	 1.05863850372768 
1232	 1.05894643833187 
1233	 1.05926613021861 
1234	 1.05955564183414 
1235	 1.05983876892038 
1236	 1.06011021281808 
1237	 1.06033578271528 
1238	 1.0605948033944 
1239	 1.06086413004846 
1240	 1.0611456221382 
1241	 1.06143535747219 
1242	 1.06171639237095 
1243	 1.06195406893821 
1244	 1.06217575898639 
1245	 1.06235147823138 
1246	 1.06247127030504 
1247	 1.06261668475753 
1248	 1.06272988463023 
1249	 1.06287402088259 
1250	 1.0630628739512 
1251	 1.06318414248784 
1252	 1.06329161581809 
1253	 1.06337271092784 
1254	 1.06341028006554 
1255	 1.0634391049922 
1256	 1.06343925613666 
1257	 1.06344949440782 
1258	 1.06342822719105 
1259	 1.06343170419462 
1260	 1.06348956767522 
1261	 1.06349472646467 
1262	 1.06347964883823 
1263	 1.06346157208042 
1264	 1.06340196293036 
1265	 1.06329100927742 
1266	 1.06319373195098 
1267	 1.0630773591727 
1268	 1.06297258282617 
1269	 1.06286400099674 
1270	 1.06275608054723 
1271	 1.06262961389935 
1272	 1.06255063874382 
1273	 1.06250671621779 
1274	 1.06243120021509 
1275	 1.06236892294248 
1276	 1.06231058501056 
1277	 1.06220992960586 
1278	 1.06215663716495 
1279	 1.06216901674824 
1280	 1.06214071415284 
1281	 1.06208669369233 
1282	 1.0620642628392 
1283	 1.06205603213607 
1284	 1.06203307477632 
1285	 1.06201320073718 
1286	 1.06200868818607 
1287	 1.06201679903857 
1288	 1.06200733036893 
1289	 1.06203449160539 
1290	 1.06212092644392 
1291	 1.06214564397965 
1292	 1.06215413766964 
1293	 1.06215630425111 
1294	 1.06214169831426 
1295	 1.06211679624902 
1296	 1.06208232408058 
1297	 1.0620430754244 
1298	 1.06199588472469 
1299	 1.06193130158758 
1300	 1.06185492111921 
1301	 1.06177745206272 
1302	 1.06170550754326 
1303	 1.0615916507172 
1304	 1.06146825808385 
1305	 1.06131911893307 
1306	 1.06112301456717 
1307	 1.06092114561226 
1308	 1.06070744875239 
1309	 1.06048810472902 
1310	 1.06023866684447 
1311	 1.0599517368126 
1312	 1.05970346126896 
1313	 1.059449404862 
1314	 1.05920626726618 
1315	 1.05900655439107 
1316	 1.05874192648411 
1317	 1.058444044141 
1318	 1.05815470602953 
1319	 1.05782292173941 
1320	 1.05753780065475 
1321	 1.05730108281358 
1322	 1.05700991216412 
1323	 1.05671159488589 
1324	 1.05640427758204 
1325	 1.05607293284557 
1326	 1.05572627674888 
1327	 1.05541572114675 
1328	 1.05502297668863 
1329	 1.05454969304865 
1330	 1.05409392092502 
1331	 1.05359535964806 
1332	 1.05310528317519 
1333	 1.05265534150595 
1334	 1.0521437602034 
1335	 1.0516365336257 
1336	 1.05111978622583 
1337	 1.05057150889698 
1338	 1.05002191727606 
1339	 1.04940441879907 
1340	 1.04874535020583 
1341	 1.04805920927067 
1342	 1.04731565752195 
1343	 1.0465796163595 
1344	 1.04583358631794 
1345	 1.04505617296747 
1346	 1.04424251566065 
1347	 1.0434481158622 
1348	 1.04265439622002 
1349	 1.04182927845392 
1350	 1.04099523119599 
1351	 1.04015070211394 
1352	 1.03926621031559 
1353	 1.03838896642122 
1354	 1.03750603774078 
1355	 1.03664085538331 
1356	 1.03577616632172 
1357	 1.0349095538837 
1358	 1.03405095260192 
1359	 1.0331940526157 
1360	 1.0323420810672 
1361	 1.03146616241396 
1362	 1.03057936633851 
1363	 1.02978391371021 
1364	 1.02897754773543 
1365	 1.02819049044582 
1366	 1.02740406187076 
1367	 1.026667413761 
1368	 1.02584678492126 
1369	 1.02502023517539 
1370	 1.024116441644 
1371	 1.02313465574316 
1372	 1.02217715612983 
1373	 1.02118424100389 
1374	 1.0201853445168 
1375	 1.01918271182438 
1376	 1.01815444271648 
1377	 1.01709577618935 
1378	 1.01600990270518 
1379	 1.01492640670879 
1380	 1.01377398678681 
1381	 1.012626593851 
1382	 1.01132687625847 
1383	 1.00994823240777 
1384	 1.00845786561075 
1385	 1.00690606071346 
1386	 1.0051671542485 
1387	 1.00333172137782 
1388	 1.00135511662496 
1389	 0.999184358791519 
1390	 0.996941370953883 
1391	 0.994662710738584 
1392	 0.992139084590965 
1393	 0.989656699781177 
1394	 0.987042680079414 
1395	 0.984366526349798 
1396	 0.981619386380798 
1397	 0.978832977349236 
1398	 0.975981053968047 
1399	 0.97303755539762 
1400	 0.970059370985963 
1401	 0.966944929537166 
1402	 0.963793838987172 
1403	 0.960354215742934 
1404	 0.956846928033298 
1405	 0.953009845910567 
1406	 0.948902685376578 
1407	 0.944584577041269 
1408	 0.939823559086445 
1409	 0.935285067913852 
1410	 0.930343070571617 
1411	 0.926030296028613 
1412	 0.921704858564441 
1413	 0.918217858730564 
1414	 0.915169903162866 
1415	 0.912749789241565 
1416	 0.911197404436263 
1417	 0.909749629052919 
1418	 0.90901693384241 
1419	 0.908054030388626 
1420	 0.907366341362037 
1421	 0.90642574596835 
1422	 0.905381325365 
1423	 0.904202412412441 
1424	 0.902901535356288 
1425	 0.90139947909593 
1426	 0.899929701015766 
1427	 0.898384288896232 
1428	 0.896798707042985 
1429	 0.89536432501847 
1430	 0.893917064205531 
1431	 0.892470012671291 
1432	 0.891078756858797 
1433	 0.88972849999312 
1434	 0.888429850713363 
1435	 0.887165377376326 
1436	 0.885936047042928 
1437	 0.884779388279361 
1438	 0.883626025193103 
1439	 0.882472784679416 
1440	 0.881380291895351 
1441	 0.88031943056209 
1442	 0.879305784011817 
1443	 0.878340430193294 
1444	 0.87740223776868 
1445	 0.876498154297044 
1446	 0.875649602359501 
1447	 0.874851322803538 
1448	 0.874067258314543 
1449	 0.873339221617041 
1450	 0.87260545384058 
1451	 0.871878830222443 
1452	 0.87116812377702 
1453	 0.870476957876098 
1454	 0.869798196152188 
1455	 0.869118954420845 
1456	 0.868474685630399 
1457	 0.867847037310894 
1458	 0.867247590854677 
1459	 0.866694370693418 
1460	 0.866134579167564 
1461	 0.865584449872159 
1462	 0.86505614289798 
1463	 0.864529185426935 
1464	 0.86402770167156 
1465	 0.863552784288157 
1466	 0.863087336639686 
1467	 0.862664305285836 
1468	 0.862284211546122 
1469	 0.861935620116735 
1470	 0.861613110824537 
1471	 0.861294133051227 
1472	 0.861005303660893 
1473	 0.86066966317093 
1474	 0.8603383616721 
1475	 0.85997127926231 
1476	 0.859563746195062 
1477	 0.859158564866875 
1478	 0.858768789320799 
1479	 0.858297584959055 
1480	 0.857795497125429 
1481	 0.857241098937725 
1482	 0.856616437376832 
1483	 0.85597916223938 
1484	 0.855315025895277 
1485	 0.854608382422888 
1486	 0.853841557759757 
1487	 0.853098740922231 
1488	 0.852302651754673 
1489	 0.851574178278769 
1490	 0.850851509281667 
1491	 0.850195277991978 
1492	 0.849568263762251 
1493	 0.849014309219008 
1494	 0.848521487589001 
1495	 0.848086166490612 
1496	 0.847694742158425 
1497	 0.84739657464002 
1498	 0.84714960647561 
1499	 0.847011813144209 
1500	 0.846989925987144 
1501	 0.847018490645405 
1502	 0.847143049142 
1503	 0.847311014346172 
1504	 0.847528016509764 
1505	 0.847817121762313 
1506	 0.848183388729177 
1507	 0.848591082202633 
1508	 0.84907418245989 
1509	 0.849583523556524 
1510	 0.850152937625013 
1511	 0.850724239159048 
1512	 0.851336968391483 
1513	 0.851943575939913 
1514	 0.852543158540838 
1515	 0.853169903602344 
1516	 0.853787182049781 
1517	 0.854457082031464 
1518	 0.855181521674618 
1519	 0.855906051190482 
1520	 0.856655935599007 
1521	 0.857427494719997 
1522	 0.858211470683893 
1523	 0.859039446994695 
1524	 0.859856388247722 
1525	 0.860699423357577 
1526	 0.86156134744591 
1527	 0.862401659376968 
1528	 0.863335348994034 
1529	 0.864326612064354 
1530	 0.86534907476483 
1531	 0.866436935233099 
1532	 0.867504997331367 
1533	 0.868593017208857 
1534	 0.869705118717527 
1535	 0.870827012514947 
1536	 0.871963109710793 
1537	 0.873140517813023 
1538	 0.874292018418782 
1539	 0.875456158027176 
1540	 0.876569945264521 
1541	 0.877679832671025 
1542	 0.878737365494518 
1543	 0.879743944859881 
1544	 0.880733331367252 
1545	 0.881719653458026 
1546	 0.882613287405443 
1547	 0.883485183678567 
1548	 0.884230772725144 
1549	 0.884867199639057 
1550	 0.885465548780404 
1551	 0.885973788168009 
1552	 0.886444975647492 
1553	 0.886877568231996 
1554	 0.887235556145455 
1555	 0.887506243404765 
1556	 0.887766600957851 
1557	 0.887959017124039 
1558	 0.88816202689141 
1559	 0.888320159892341 
1560	 0.888527870361508 
1561	 0.888721250535285 
1562	 0.88897586175471 
1563	 0.889257882845591 
1564	 0.889604045793359 
1565	 0.88999416444004 
1566	 0.89043862891749 
1567	 0.890962105551418 
1568	 0.891492790258214 
1569	 0.892076867064457 
1570	 0.892653472235129 
1571	 0.89326443038097 
1572	 0.893846777745459 
1573	 0.894406894855616 
1574	 0.894998339283121 
1575	 0.895599473086841 
1576	 0.896194245514989 
1577	 0.896806967089489 
1578	 0.897417885703404 
1579	 0.898027488092294 
1580	 0.898619122853848 
1581	 0.89921138365432 
1582	 0.899800400742623 
1583	 0.900361971158418 
1584	 0.90093769030727 
1585	 0.901526273758955 
1586	 0.902113833976828 
1587	 0.902688342245243 
1588	 0.903284180438989 
1589	 0.903896441831266 
1590	 0.904509469228771 
1591	 0.905144755768991 
1592	 0.905762314017001 
1593	 0.90635230983084 
1594	 0.906983261421776 
1595	 0.907620305008009 
1596	 0.908274602415914 
1597	 0.908969183783785 
1598	 0.909657139515056 
1599	 0.910363754211988 
1600	 0.911048891507374 
1601	 0.911713616978437 
1602	 0.912405411533165 
1603	 0.913075478653139 
1604	 0.913783748057518 
1605	 0.914560359324332 
1606	 0.915294088606294 
1607	 0.91604687161968 
1608	 0.916755207438938 
1609	 0.91742434922221 
1610	 0.918080625090341 
1611	 0.918716131695356 
1612	 0.919320390144406 
1613	 0.919890130957212 
1614	 0.920456752047111 
1615	 0.920991508900513 
1616	 0.921534682571149 
1617	 0.922079385569912 
1618	 0.922617700085623 
1619	 0.92317652230745 
1620	 0.923679200619031 
1621	 0.924134601944854 
1622	 0.924606817911155 
1623	 0.925062206438901 
1624	 0.925498224723772 
1625	 0.925934189186646 
1626	 0.926365473697355 
1627	 0.926773044387695 
1628	 0.927163814363357 
1629	 0.927542488488089 
1630	 0.927937649253167 
1631	 0.928320408200786 
1632	 0.928701124381164 
1633	 0.929110535252588 
1634	 0.929495719341645 
1635	 0.92984097102037 
1636	 0.930205054669662 
1637	 0.930591675306416 
1638	 0.930946223151013 
1639	 0.931303024992551 
1640	 0.931634368774723 
1641	 0.931940418124081 
1642	 0.93222370833087 
1643	 0.932500899090228 
1644	 0.932724090088279 
1645	 0.932901041037195 
1646	 0.933060633044018 
1647	 0.933177725918991 
1648	 0.933284839178021 
1649	 0.933411035563028 
1650	 0.933446531122411 
1651	 0.933428643994366 
1652	 0.933365417640235 
1653	 0.933225246585623 
1654	 0.93306368843142 
1655	 0.932888672326342 
1656	 0.932640668785238 
1657	 0.932359291712539 
1658	 0.93197733932462 
1659	 0.931527355140984 
1660	 0.930984743483673 
1661	 0.930359127991899 
1662	 0.929635852977255 
1663	 0.928821122179217 
1664	 0.927895631342893 
1665	 0.926887245860813 
1666	 0.925727469192855 
1667	 0.924462749539637 
1668	 0.923054226475304 
1669	 0.921526364818732 
1670	 0.919808819888986 
1671	 0.91790152740513 
1672	 0.915872642503183 
1673	 0.913670294392215 
1674	 0.911328943975425 
1675	 0.908839204337913 
1676	 0.906306581582024 
1677	 0.903609681608268 
1678	 0.900920558908153 
1679	 0.898116009661455 
1680	 0.895379951182436 
1681	 0.892576721547883 
1682	 0.889908609202449 
1683	 0.887297330029596 
1684	 0.884874214115806 
1685	 0.882533857768135 
1686	 0.880374101205187 
1687	 0.878330909666568 
1688	 0.876515903817682 
1689	 0.874867825511433 
1690	 0.873440878381472 
1691	 0.872283058057595 
1692	 0.871281526461582 
1693	 0.870492056813534 
1694	 0.869800384137917 
1695	 0.869328904020155 
1696	 0.868822409658803 
1697	 0.868446493866368 
1698	 0.867997210775677 
1699	 0.867563730646928 
1700	 0.867113548694506 
1701	 0.866660734104394 
1702	 0.866140245564198 
1703	 0.865592164867408 
1704	 0.865006063505386 
1705	 0.864369590382232 
1706	 0.863651666747822 
1707	 0.862987662775866 
1708	 0.862258583360553 
1709	 0.8614614192294 
1710	 0.860629833725187 
1711	 0.859616512327493 
1712	 0.858493945289643 
1713	 0.857185399957049 
1714	 0.855699622219338 
1715	 0.854177949252541 
1716	 0.852382605122304 
1717	 0.85046409844407 
1718	 0.848432964571742 
1719	 0.846177764375361 
1720	 0.843969666579119 
1721	 0.841700208248904 
1722	 0.839400631576556 
1723	 0.837348627160244 
1724	 0.835385122937862 
1725	 0.833606127994287 
1726	 0.832058606201607 
1727	 0.830616020760092 
1728	 0.829461731915733 
1729	 0.828606502195013 
1730	 0.828090113866759 
1731	 0.827895511823858 
1732	 0.827942049786068 
1733	 0.82813250514709 
1734	 0.828506812334546 
1735	 0.829048586278385 
1736	 0.829652437422999 
1737	 0.830385931641675 
1738	 0.831165741536229 
1739	 0.831934715490567 
1740	 0.832728276802368 
1741	 0.833534932529852 
1742	 0.83439422616884 
1743	 0.835245044055086 
1744	 0.836090349118973 
1745	 0.836996689412564 
1746	 0.837919256416573 
1747	 0.838821717660575 
1748	 0.839784937117004 
1749	 0.840678563539722 
1750	 0.841565939257078 
1751	 0.842386283455189 
1752	 0.843188609805357 
1753	 0.843884349583442 
1754	 0.844481758755148 
1755	 0.845010547418818 
1756	 0.845414616736469 
1757	 0.845834440618859 
1758	 0.846289759170984 
1759	 0.846733401105526 
1760	 0.847187068805808 
1761	 0.847644602695567 
1762	 0.848081839589992 
1763	 0.848552777637139 
1764	 0.849045040888007 
1765	 0.849594015950064 
1766	 0.850247459001608 
1767	 0.850924676091726 
1768	 0.851648239161566 
1769	 0.852417149220665 
1770	 0.853110728078379 
1771	 0.853851161142924 
1772	 0.854593221344813 
1773	 0.855236194772338 
1774	 0.855915161630787 
1775	 0.856546880563299 
1776	 0.857120204710609 
1777	 0.8576784408416 
1778	 0.858113271961273 
1779	 0.858440091394536 
1780	 0.858748120275133 
1781	 0.859053224980827 
1782	 0.859328521400749 
1783	 0.85956978221124 
1784	 0.859764139808337 
1785	 0.859862379082263 
1786	 0.860003504996045 
1787	 0.860153616508439 
1788	 0.860280557483104 
1789	 0.860413692933451 
1790	 0.860530233796276 
1791	 0.860611764691798 
1792	 0.860703569059132 
1793	 0.860774657791525 
1794	 0.860811752481376 
1795	 0.860937138868362 
1796	 0.861138072133779 
1797	 0.861375242097073 
1798	 0.861631224019499 
1799	 0.861861114687888 
1800	 0.862040445779494 
1801	 0.863938671183561 
1802	 0.864147834807374 
1803	 0.864401170366268 
1804	 0.864684268497228 
1805	 0.864979889338344 
1806	 0.865297582490918 
1807	 0.865664508490445 
1808	 0.866018683010117 
1809	 0.866394575673473 
1810	 0.866742842173948 
1811	 0.867092715562207 
1812	 0.867431861438545 
1813	 0.867752350350495 
1814	 0.86807420239525 
1815	 0.868396222569539 
1816	 0.868722638370542 
1817	 0.869054506194827 
1818	 0.869420532357283 
1819	 0.869724074394233 
1820	 0.870006390814103 
1821	 0.870279241457861 
1822	 0.870516348470149 
1823	 0.870728750087127 
1824	 0.870974269991689 
1825	 0.87124264324531 
1826	 0.871508156924518 
1827	 0.871771135799032 
1828	 0.872063768823894 
1829	 0.872393545694661 
1830	 0.872686275788838 
1831	 0.872990148250612 
1832	 0.873269798031303 
1833	 0.87353982508805 
1834	 0.873786429403936 
1835	 0.874037919483461 
1836	 0.874285940367853 
1837	 0.874507444902943 
1838	 0.874705472655434 
1839	 0.874890896288174 
1840	 0.875086138672742 
1841	 0.875227869895912 
1842	 0.875337139855911 
1843	 0.875414705276829 
1844	 0.875470544787938 
1845	 0.875476021011515 
1846	 0.875485169561543 
1847	 0.875454562184189 
1848	 0.875375448309433 
1849	 0.875288885470709 
1850	 0.875114176152248 
1851	 0.874866340670757 
1852	 0.874585056055385 
1853	 0.87428436538746 
1854	 0.873896340930736 
1855	 0.873489610869639 
1856	 0.873057866918064 
1857	 0.872486296157006 
1858	 0.871808533571914 
1859	 0.871059492392377 
1860	 0.870227511649243 
1861	 0.869264972569236 
1862	 0.868184334525204 
1863	 0.867099470536796 
1864	 0.865864269561343 
1865	 0.864556125770515 
1866	 0.863205868090834 
1867	 0.861619596894597 
1868	 0.859944464726194 
1869	 0.858089423193049 
1870	 0.856070666501434 
1871	 0.853916466213855 
1872	 0.851626396930251 
1873	 0.849175399126987 
1874	 0.846600046924171 
1875	 0.843855559321518 
1876	 0.840741856507266 
1877	 0.837590902914461 
1878	 0.834123546187217 
1879	 0.830382627052061 
1880	 0.826789775050441 
1881	 0.822842832543386 
1882	 0.818618344754722 
1883	 0.814242439412272 
1884	 0.8096261152132 
1885	 0.804321608988031 
1886	 0.798930046746192 
1887	 0.793075742897075 
1888	 0.786751526657523 
1889	 0.780659193222387 
1890	 0.774029635317917 
1891	 0.767270721007611 
1892	 0.760395301310349 
1893	 0.752993343740754 
1894	 0.745005861495958 
1895	 0.737161854076271 
1896	 0.728943241718657 
1897	 0.720455847806986 
1898	 0.712650283459124 
1899	 0.704463799049552 
1900	 0.696351506400258 
1901	 0.688524361279592 
1902	 0.680032980177719 
1903	 0.671852593103762 
1904	 0.663776392405378 
1905	 0.655657749209799 
1906	 0.647604115270451 
1907	 0.640377292330861 
1908	 0.633044653971492 
1909	 0.625996347399915 
1910	 0.619303338529125 
1911	 0.612240135152779 
1912	 0.605627466186474 
1913	 0.599133728701022 
1914	 0.592647559468532 
1915	 0.58668707710508 
1916	 0.581250406498645 
1917	 0.575737545952649 
1918	 0.570494879147795 
1919	 0.565570050147682 
1920	 0.560348593685417 
1921	 0.555471816999426 
1922	 0.550669418354605 
1923	 0.545880906713682 
1924	 0.541675640700947 
1925	 0.537513217596548 
1926	 0.533526688333211 
1927	 0.529860277453585 
1928	 0.526220811567656 
1929	 0.522589013224792 
1930	 0.519271215017196 
1931	 0.516104177776686 
1932	 0.51308288246583 
1933	 0.510504279882375 
1934	 0.508017823783371 
1935	 0.505749262467723 
1936	 0.503734784766017 
1937	 0.501808775382836 
1938	 0.499973120927163 
1939	 0.498419898437692 
1940	 0.497041801491896 
1941	 0.495857618071943 
1942	 0.494978810730409 
1943	 0.494279263015597 
1944	 0.493735088165624 
1945	 0.493410905006894 
1946	 0.493273193826308 
1947	 0.493259616373761 
1948	 0.493418767036519 
1949	 0.493769993455272 
1950	 0.494234753183303 
1951	 0.494852478754657 
1952	 0.49559134527174 
1953	 0.496468238586939 
1954	 0.497455421058542 
1955	 0.498624506285172 
1956	 0.499813266756128 
1957	 0.501114644010025 
1958	 0.502522558336509 
1959	 0.503890651060811 
1960	 0.505363277802573 
1961	 0.506850972287815 
1962	 0.508350134696823 
1963	 0.509937529169455 
1964	 0.511593296699569 
1965	 0.513255759502752 
1966	 0.515001430281467 
1967	 0.516774713621275 
1968	 0.518412238253557 
1969	 0.520134879642033 
1970	 0.521805032108298 
1971	 0.523437297172745 
1972	 0.525247090313772 
1973	 0.526953379441588 
1974	 0.528696541336571 
1975	 0.530534831113321 
1976	 0.532268446106778 
1977	 0.533915437584134 
1978	 0.53564651644988 
1979	 0.537369274555254 
1980	 0.539060325147021 
1981	 0.540956341362867 
1982	 0.54276681760053 
1983	 0.544616829659788 
1984	 0.546520753286951 
1985	 0.548240043631484 
1986	 0.550042825340805 
1987	 0.55185106289444 
1988	 0.553608580015495 
1989	 0.555458351926773 
1990	 0.557420168834084 
1991	 0.559286996384675 
1992	 0.561156501116952 
1993	 0.563056111336539 
1994	 0.564790761294733 
1995	 0.566609236550069 
1996	 0.568389149889455 
1997	 0.570136850444626 
1998	 0.57195980565977 
1999	 0.573840178258377 
2000	 0.575636263002137 
2001	 0.577535074687551 
2002	 0.579232837227892 
2003	 0.58077609240569 
2004	 0.582343926563705 
2005	 0.583787152774278 
2006	 0.585270735017991 
2007	 0.586797709445387 
2008	 0.588261484140761 
2009	 0.589693501485975 
2010	 0.591076881142671 
2011	 0.592293835336508 
2012	 0.593467615671004 
2013	 0.594534459394272 
2014	 0.595483285344443 
2015	 0.596370667451162 
2016	 0.597229238270942 
2017	 0.597907747873027 
2018	 0.598508916405706 
2019	 0.598928213962235 
2020	 0.599194936860542 
2021	 0.599284353327368 
2022	 0.599254764182049 
2023	 0.599050549965449 
2024	 0.598623740601427 
2025	 0.598078798970118 
2026	 0.597330608207113 
2027	 0.596330908114996 
2028	 0.595273972777169 
2029	 0.594061241194245 
2030	 0.592735704315246 
2031	 0.591301980840893 
2032	 0.58974234457719 
2033	 0.587905404441223 
2034	 0.586205606513364 
2035	 0.584408925498184 
2036	 0.582644241670045 
2037	 0.581134415986468 
2038	 0.57971260269832 
2039	 0.578486846833022 
2040	 0.57742933913681 
2041	 0.576556242078663 
2042	 0.575797004476081 
2043	 0.575334512309724 
2044	 0.575124921102679 
2045	 0.575072134650843 
2046	 0.575301776098243 
2047	 0.575622287859561 
2048	 0.576073313267322 
2049	 0.576700508461451 
2050	 0.577532185181321 
2051	 0.57843348704919 
2052	 0.579555470874297 
2053	 0.580845785664332 
2054	 0.582112975481347 
2055	 0.583488319230775 
2056	 0.584899845968919 
2057	 0.586271975700239 
2058	 0.587843284831233 
2059	 0.589552362219294 
2060	 0.591317710856739 
2061	 0.593295397864157 
2062	 0.595191348721337 
2063	 0.597085210839694 
2064	 0.599042328263694 
2065	 0.601030770996204 
2066	 0.602975638016176 
2067	 0.605121673845308 
2068	 0.607225122907341 
2069	 0.609314160189626 
2070	 0.611492992526587 
2071	 0.613488570613652 
2072	 0.615380527910074 
2073	 0.61728316816287 
2074	 0.61908748268797 
2075	 0.620905229898718 
2076	 0.622754325722638 
2077	 0.62450585796526 
2078	 0.626273654524825 
2079	 0.627880455440954 
2080	 0.629375127951916 
2081	 0.630804878434718 
2082	 0.632126576061858 
2083	 0.633306393313537 
2084	 0.634539657548433 
2085	 0.635672941539383 
2086	 0.63675508384318 
2087	 0.63780635836561 
2088	 0.638752142361949 
2089	 0.639605948984464 
2090	 0.6404045499789 
2091	 0.641108275277449 
2092	 0.64177926545063 
2093	 0.642386552249373 
2094	 0.642946518692615 
2095	 0.643471393968073 
2096	 0.643925616390292 
2097	 0.644297656526307 
2098	 0.644650818290352 
2099	 0.644940009770187 
2100	 0.645166924443242 
2101	 0.645368664379447 
2102	 0.645523098440708 
2103	 0.645654777900581 
2104	 0.645755102559222 
2105	 0.645816583264813 
2106	 0.645832459712444 
2107	 0.645839803794741 
2108	 0.645812462707989 
2109	 0.645764027122548 
2110	 0.645716673953694 
2111	 0.645614059209754 
2112	 0.645454628805711 
2113	 0.645288065131714 
2114	 0.645072847056855 
2115	 0.644865734159361 
2116	 0.644647689718349 
2117	 0.644436690010048 
2118	 0.644192763997347 
2119	 0.643950122534957 
2120	 0.643643476103956 
2121	 0.643289473988502 
2122	 0.642929719654962 
2123	 0.642555228685435 
2124	 0.642116236927161 
2125	 0.641702869372524 
2126	 0.641131762534892 
2127	 0.640475241345497 
2128	 0.639714720723313 
2129	 0.638801647888124 
2130	 0.637863361297621 
2131	 0.636882979602661 
2132	 0.635777268533727 
2133	 0.63461915741804 
2134	 0.633357299599065 
2135	 0.631835347500595 
2136	 0.630233218447465 
2137	 0.628472882779643 
2138	 0.626466032415091 
2139	 0.624547109696944 
2140	 0.622569676835492 
2141	 0.620510261357321 
2142	 0.618470625713784 
2143	 0.616257532232719 
2144	 0.613848603513415 
2145	 0.611507188181031 
2146	 0.609010462920818 
2147	 0.606657777650731 
2148	 0.604440943469018 
2149	 0.602105204516802 
2150	 0.599879458480479 
2151	 0.597458697561924 
2152	 0.594834180420712 
2153	 0.592243736589602 
2154	 0.589544679630404 
2155	 0.586780234102213 
2156	 0.584162766731279 
2157	 0.581585646729521 
2158	 0.579030193933522 
2159	 0.576595635328902 
2160	 0.574045265707133 
2161	 0.571418099129054 
2162	 0.568903207338011 
2163	 0.566284192376016 
2164	 0.563923429189511 
2165	 0.561728364844824 
2166	 0.55958905332391 
2167	 0.557606136405962 
2168	 0.555674265967718 
2169	 0.553733650449324 
2170	 0.55201701160028 
2171	 0.550380352149767 
2172	 0.548976575193675 
2173	 0.547811062666105 
2174	 0.546774095679349 
2175	 0.545933601692371 
2176	 0.545288711027379 
2177	 0.544678957887102 
2178	 0.544197450151969 
2179	 0.543809094320126 
2180	 0.543498637908794 
2181	 0.543322590582076 
2182	 0.54328018745677 
2183	 0.543339435430538 
2184	 0.543502950161341 
2185	 0.543804131646391 
2186	 0.544255501600744 
2187	 0.544790636384942 
2188	 0.545521028660099 
2189	 0.5462183800701 
2190	 0.54699564992796 
2191	 0.547794260067605 
2192	 0.548581500696352 
2193	 0.549459516886798 
2194	 0.550422363832719 
2195	 0.5514134659754 
2196	 0.552491026954335 
2197	 0.553613684777988 
2198	 0.554595997532002 
2199	 0.555651884771257 
2200	 0.556671471374684 
2201	 0.557614919270566 
2202	 0.558631009539571 
2203	 0.559729351939778 
2204	 0.560698219335503 
2205	 0.561621414304656 
2206	 0.562526255575214 
2207	 0.563362447214882 
2208	 0.564204846065638 
2209	 0.565011786015354 
2210	 0.565849786470629 
2211	 0.56667421615366 
2212	 0.567482415076467 
2213	 0.568314682627894 
2214	 0.569114726563727 
2215	 0.56989643320301 
2216	 0.570642465057066 
2217	 0.571337787016143 
2218	 0.572060630245662 
2219	 0.572750023453501 
2220	 0.573448817813344 
2221	 0.57419466029849 
2222	 0.574953784877097 
2223	 0.575529054206579 
2224	 0.576048533041732 
2225	 0.576467220426022 
2226	 0.57669964913661 
2227	 0.576935970926708 
2228	 0.577149403888127 
2229	 0.577207865002613 
2230	 0.577176124473716 
2231	 0.577025797133259 
2232	 0.576785880725505 
2233	 0.576339214348537 
2234	 0.575792864343401 
2235	 0.575008093391762 
2236	 0.573984400000509 
2237	 0.572838831675994 
2238	 0.571444481122785 
2239	 0.570034297476296 
2240	 0.568602847975778 
2241	 0.566881014120865 
2242	 0.565086218640079 
2243	 0.562968971498912 
2244	 0.560467333647666 
2245	 0.557904094881845 
2246	 0.555061370474183 
2247	 0.552215936312765 
2248	 0.549298673481019 
2249	 0.546252096168466 
2250	 0.543121533915327 
2251	 0.539924319229413 
2252	 0.536416584720492 
2253	 0.532975173311134 
2254	 0.529370189731668 
2255	 0.525714370427059 
2256	 0.522446097275454 
2257	 0.519133844852125 
2258	 0.516034429464534 
2259	 0.513199766689192 
2260	 0.510339141712224 
2261	 0.507435316494677 
2262	 0.504917228083303 
2263	 0.502512385385242 
2264	 0.500465493852064 
2265	 0.498825297005388 
2266	 0.497196331315828 
2267	 0.495829525063257 
2268	 0.494485388774294 
2269	 0.493243328175659 
2270	 0.492101793822733 
2271	 0.491098416929202 
2272	 0.490100536362723 
2273	 0.48922687081151 
2274	 0.488294393641774 
2275	 0.487389568589195 
2276	 0.486462182212215 
2277	 0.485498561178129 
2278	 0.484554529038717 
2279	 0.483572577573663 
2280	 0.482658092411461 
2281	 0.481722920496918 
2282	 0.480907457157173 
2283	 0.480136391785717 
2284	 0.479503401459994 
2285	 0.478975621550723 
2286	 0.478677680754673 
2287	 0.478505741997392 
2288	 0.478408527760556 
2289	 0.478473059817483 
2290	 0.478651409456929 
2291	 0.478909092711098 
2292	 0.479331012582688 
2293	 0.479851422182469 
2294	 0.480428077853956 
2295	 0.48112201272573 
2296	 0.481826764004709 
2297	 0.482537843934099 
2298	 0.483292527521679 
2299	 0.484018950529248 
2300	 0.484734639380561 
2301	 0.485484517401957 
2302	 0.486274097809414 
2303	 0.486972316364757 
2304	 0.487685797122218 
2305	 0.488295323202468 
2306	 0.488766515024069 
2307	 0.489311323625632 
2308	 0.489796969129661 
2309	 0.490381977225067 
2310	 0.49099622937183 
2311	 0.491683052578366 
2312	 0.492476637646468 
2313	 0.493237135976551 
2314	 0.494081948282274 
2315	 0.49484020529612 
2316	 0.495521793049285 
2317	 0.49625658051859 
2318	 0.497068136624892 
2319	 0.497691626449583 
2320	 0.498328051103581 
2321	 0.498758872996174 
2322	 0.498965156088291 
2323	 0.499130204649018 
2324	 0.499137710361599 
2325	 0.499142948134382 
2326	 0.499065759021769 
2327	 0.498959829795819 
2328	 0.498832936139938 
2329	 0.498666801665599 
2330	 0.498480703155339 
2331	 0.498184079845162 
2332	 0.497814584336039 
2333	 0.497450024930677 
2334	 0.49703112733823 
2335	 0.496619160640377 
2336	 0.496168530377985 
2337	 0.495649386768813 
2338	 0.49512572936794 
2339	 0.494475274108896 
2340	 0.493796008713994 
2341	 0.493042066673294 
2342	 0.492139270816743 
2343	 0.491297199319935 
2344	 0.490555443494166 
2345	 0.489920663058353 
2346	 0.489424001326627 
2347	 0.489015571807148 
2348	 0.488719646754873 
2349	 0.48856488324037 
2350	 0.488542464016283 
2351	 0.488660819094086 
2352	 0.488924809346687 
2353	 0.4893810925437 
2354	 0.489941836371969 
2355	 0.490678319578612 
2356	 0.491484034370011 
2357	 0.492252378531797 
2358	 0.493026621316371 
2359	 0.493671588248983 
2360	 0.494257758590085 
2361	 0.494728992850557 
2362	 0.495153485512077 
2363	 0.495626453442516 
2364	 0.496031108874164 
2365	 0.496456972514721 
2366	 0.496862218235016 
2367	 0.497173366197328 
2368	 0.497474092541959 
2369	 0.49774523366067 
2370	 0.497943081548138 
2371	 0.498094849126247 
2372	 0.498182290330253 
2373	 0.498245136092594 
2374	 0.498351397462162 
2375	 0.498414524446789 
2376	 0.498391004945533 
2377	 0.498295549047543 
2378	 0.498148379986044 
2379	 0.497951713999136 
2380	 0.497834649503147 
2381	 0.497765377711303 
2382	 0.497645272726479 
2383	 0.49748217602359 
2384	 0.497438240018879 
2385	 0.497402406570902 
2386	 0.497397707737837 
2387	 0.497546757288898 
2388	 0.497512755643749 
2389	 0.497366658561633 
2390	 0.497319125710041 
2391	 0.497259239193214 
2392	 0.497229870373076 
2393	 0.497268812432438 
2394	 0.497227671105762 
2395	 0.49713580460119 
2396	 0.496976721451923 
2397	 0.496810975646279 
2398	 0.496607257800879 
2399	 0.496310283224085 
2400	 0.496096612246069 
2401	 0.495901739824845 
2402	 0.495552360330382 
2403	 0.495238108758943 
2404	 0.494899220614449 
2405	 0.494580226269764 
2406	 0.494274684007816 
2407	 0.493976081460528 
2408	 0.493674072072334 
2409	 0.493376796939422 
2410	 0.493021945200299 
2411	 0.492555789994859 
2412	 0.492056119150557 
2413	 0.491500873752783 
2414	 0.490991813341937 
2415	 0.490555806897226 
2416	 0.489992398481462 
2417	 0.489338345015507 
2418	 0.488778329165033 
2419	 0.48811180704313 
2420	 0.487513741058264 
2421	 0.487006327188439 
2422	 0.486349355419145 
2423	 0.485971358912117 
2424	 0.485494188301001 
2425	 0.484839262133702 
2426	 0.484291696013329 
2427	 0.483551130517679 
2428	 0.482776604153133 
2429	 0.482007927213111 
2430	 0.481106821936841 
2431	 0.480087813777994 
2432	 0.478872372703133 
2433	 0.477619322438101 
2434	 0.476493348010275 
2435	 0.475348114089098 
2436	 0.474250735221412 
2437	 0.473044341821535 
2438	 0.471690267897717 
2439	 0.47018399012307 
2440	 0.468447439247215 
2441	 0.466743649351263 
2442	 0.465016913691275 
2443	 0.46336930388674 
2444	 0.46199301385242 
2445	 0.460638338702894 
2446	 0.459076402810952 
2447	 0.457493945442445 
2448	 0.455982941752931 
2449	 0.454345793600688 
2450	 0.452776541715309 
2451	 0.451255327382429 
2452	 0.449406026938632 
2453	 0.447446472429603 
2454	 0.445578847449088 
2455	 0.443929243357557 
2456	 0.442609201676394 
2457	 0.441295440472667 
2458	 0.440030227774314 
2459	 0.438818963536182 
2460	 0.437562950063146 
2461	 0.43636968433832 
2462	 0.435310323798706 
2463	 0.434151273699972 
2464	 0.432741604181915 
2465	 0.431613027323685 
2466	 0.430591624283975 
2467	 0.429434065827052 
2468	 0.428305772706733 
2469	 0.427228510656494 
2470	 0.426314343841776 
2471	 0.425628075550136 
2472	 0.425011770706768 
2473	 0.424160643739521 
2474	 0.423548622748321 
2475	 0.422849271470151 
2476	 0.421727604396172 
2477	 0.421015569760356 
2478	 0.420335045302613 
2479	 0.419617126586794 
2480	 0.419825391700441 
2481	 0.419507422097472 
2482	 0.418762761486389 
2483	 0.418202100979077 
2484	 0.417407928116178 
2485	 0.416490015646266 
2486	 0.416151816422445 
2487	 0.415535387891413 
2488	 0.4146230814035 
2489	 0.413933056711896 
2490	 0.413134396097361 
2491	 0.41267326638578 
2492	 0.412418210994644 
2493	 0.411716916099395 
2494	 0.411240188147773 
2495	 0.410384304972751 
2496	 0.409154318118644 
2497	 0.408469996328109 
2498	 0.407650050993223 
2499	 0.406963461563147 
2500	 0.406607494143784 
