Wavelength	ProbetaAcolman00025.asd
350	 0.620224145789795 
351	 0.615424056101548 
352	 0.595223191615567 
353	 0.573595264921124 
354	 0.584138887515696 
355	 0.575043626322482 
356	 0.558751471386276 
357	 0.555270839761542 
358	 0.566109822574831 
359	 0.554924778818655 
360	 0.533587952960692 
361	 0.533644832805862 
362	 0.528821180914529 
363	 0.522039425257371 
364	 0.51602593507268 
365	 0.508741013725725 
366	 0.515716206799681 
367	 0.518080613919541 
368	 0.503029730779719 
369	 0.501589887456753 
370	 0.496011495055005 
371	 0.494209537809986 
372	 0.511570035101679 
373	 0.501169991116092 
374	 0.490563203468323 
375	 0.492265598699993 
376	 0.488739646683782 
377	 0.48745435131644 
378	 0.48822000448079 
379	 0.489354654037119 
380	 0.49092522102763 
381	 0.489519597690941 
382	 0.48789534515104 
383	 0.491149126923773 
384	 0.491265482353214 
385	 0.491078663873479 
386	 0.491149617607509 
387	 0.486584115436403 
388	 0.492076124923526 
389	 0.49645061285827 
390	 0.489633647884357 
391	 0.489597154537467 
392	 0.489682073353694 
393	 0.49002126352512 
394	 0.494228320524511 
395	 0.492045389855082 
396	 0.491415317193437 
397	 0.495390122698918 
398	 0.495807914690866 
399	 0.497739694281192 
400	 0.501499586983575 
401	 0.505530387671423 
402	 0.506372127544802 
403	 0.505938105982417 
404	 0.505566322320494 
405	 0.506056996961003 
406	 0.509719823229547 
407	 0.511809961035199 
408	 0.510928373143816 
409	 0.513396786899586 
410	 0.515590471876027 
411	 0.517919040445188 
412	 0.521269226637933 
413	 0.523032911526231 
414	 0.524146846192521 
415	 0.526239500453822 
416	 0.531027186556316 
417	 0.533998690922021 
418	 0.535670719401327 
419	 0.537265707063267 
420	 0.539679873249347 
421	 0.540836467313525 
422	 0.541296824994232 
423	 0.542445359814755 
424	 0.543611439854714 
425	 0.545885852644967 
426	 0.548559850760782 
427	 0.548976224128321 
428	 0.548679263732084 
429	 0.548646947642059 
430	 0.549395571177266 
431	 0.550776078589404 
432	 0.550708753942866 
433	 0.550238045866278 
434	 0.551674323577241 
435	 0.552637896964206 
436	 0.552841439650026 
437	 0.552757162664676 
438	 0.553639075371735 
439	 0.553755206037229 
440	 0.553515251817689 
441	 0.5535778871505 
442	 0.552987371530059 
443	 0.552642840330027 
444	 0.552561483221819 
445	 0.55207061559151 
446	 0.551179343195594 
447	 0.550690355465803 
448	 0.550790284391555 
449	 0.550138664437688 
450	 0.549335435578069 
451	 0.548630474679118 
452	 0.54810076033885 
453	 0.547465843456812 
454	 0.546798937325728 
455	 0.546025570006092 
456	 0.544898570928648 
457	 0.543533601550024 
458	 0.542118856076443 
459	 0.540815898981427 
460	 0.539675200485637 
461	 0.538560832121208 
462	 0.537507283215022 
463	 0.536545421787297 
464	 0.534851459766582 
465	 0.533469922659157 
466	 0.532545812438516 
467	 0.530606974645115 
468	 0.528587204537301 
469	 0.526963521305881 
470	 0.52584506769185 
471	 0.524526633229853 
472	 0.522611101473165 
473	 0.5204385041966 
474	 0.518848941842036 
475	 0.517526215881414 
476	 0.515888545567345 
477	 0.513846926251244 
478	 0.512468331515446 
479	 0.510922260829709 
480	 0.509264657042053 
481	 0.507813967348694 
482	 0.506310824366921 
483	 0.505061699516357 
484	 0.504037577982284 
485	 0.502810834528959 
486	 0.501576442878834 
487	 0.500674807855877 
488	 0.500117181796419 
489	 0.49877742727388 
490	 0.497963009353385 
491	 0.497585847975402 
492	 0.496822492459779 
493	 0.496131167618279 
494	 0.495616479810436 
495	 0.495202715404039 
496	 0.494591487088336 
497	 0.493948411307124 
498	 0.493403055250885 
499	 0.492991634341822 
500	 0.492414404339796 
501	 0.491705632946497 
502	 0.490921619652057 
503	 0.490120021334552 
504	 0.489267959905588 
505	 0.488278861548389 
506	 0.487175304313966 
507	 0.486283476640224 
508	 0.485126702267837 
509	 0.483841867616557 
510	 0.482762119289309 
511	 0.481550097131169 
512	 0.480303850325793 
513	 0.479104266222658 
514	 0.477956543484693 
515	 0.47689387585516 
516	 0.475960636875307 
517	 0.475125052571038 
518	 0.47406834594072 
519	 0.473298349522047 
520	 0.47281746955714 
521	 0.472300015215252 
522	 0.471986618033087 
523	 0.471802112221293 
524	 0.471715979670762 
525	 0.471877931569811 
526	 0.472102629541349 
527	 0.4724109203097 
528	 0.472885344577427 
529	 0.473532804898239 
530	 0.474173072787469 
531	 0.474768843658062 
532	 0.47543812095459 
533	 0.476096706647495 
534	 0.476706917317511 
535	 0.477265709661454 
536	 0.477858820309395 
537	 0.478265804215965 
538	 0.478517404392077 
539	 0.478756614453669 
540	 0.478756142457469 
541	 0.478634729454002 
542	 0.478406297513422 
543	 0.477846229734667 
544	 0.477243686219103 
545	 0.476528610604997 
546	 0.475569138636447 
547	 0.474466373412352 
548	 0.473298608252905 
549	 0.472114872103101 
550	 0.470937827588179 
551	 0.469800964841576 
552	 0.468580904880131 
553	 0.467233363457391 
554	 0.465967419042083 
555	 0.464807084704685 
556	 0.463745834167574 
557	 0.462765927032126 
558	 0.461943672265552 
559	 0.461180896096625 
560	 0.460518253447131 
561	 0.460198698890035 
562	 0.460085651094781 
563	 0.460229612295381 
564	 0.460658852109376 
565	 0.461133534525115 
566	 0.461875519136139 
567	 0.462905746200322 
568	 0.464098569883591 
569	 0.465623311551288 
570	 0.467348141915134 
571	 0.469176236521974 
572	 0.471169785879485 
573	 0.473314096475739 
574	 0.475490939852403 
575	 0.47759088620326 
576	 0.479790106111071 
577	 0.482011254225002 
578	 0.484173177593336 
579	 0.48621699439879 
580	 0.488420570923354 
581	 0.490565978764915 
582	 0.492461743052901 
583	 0.494360668635351 
584	 0.496164361500115 
585	 0.497813041797884 
586	 0.499294336608368 
587	 0.500797727933588 
588	 0.502142307147025 
589	 0.50329913477953 
590	 0.504558969932859 
591	 0.505619836740101 
592	 0.506485083820326 
593	 0.507261225061159 
594	 0.508073205236088 
595	 0.508692758627505 
596	 0.509080611275697 
597	 0.509375233063348 
598	 0.509652015244394 
599	 0.509704533278611 
600	 0.509507923660657 
601	 0.509616660201046 
602	 0.509548690561855 
603	 0.50925639355969 
604	 0.508908378379232 
605	 0.508750722279736 
606	 0.508541036742944 
607	 0.508173010509182 
608	 0.507760898236957 
609	 0.507424696040748 
610	 0.507039746243556 
611	 0.506492422739475 
612	 0.505908249275682 
613	 0.505469594568716 
614	 0.505062464964994 
615	 0.504412006368084 
616	 0.503732527204352 
617	 0.503158639782714 
618	 0.502663495796732 
619	 0.501956244051715 
620	 0.501200412103212 
621	 0.5004946719189 
622	 0.499857456062059 
623	 0.499026112656286 
624	 0.498129435656708 
625	 0.497303977285515 
626	 0.496653579431213 
627	 0.49584980939225 
628	 0.494948727699853 
629	 0.494079655964023 
630	 0.493378302852756 
631	 0.492558000476036 
632	 0.491650005628625 
633	 0.490823266485737 
634	 0.490086579073021 
635	 0.489335244955634 
636	 0.488546851160141 
637	 0.487814254236034 
638	 0.487142468313574 
639	 0.486509201915388 
640	 0.485898771277448 
641	 0.485350148481498 
642	 0.484815313424592 
643	 0.484307214684857 
644	 0.483864418529375 
645	 0.483397127572342 
646	 0.482947702475729 
647	 0.482571372119204 
648	 0.482319948574678 
649	 0.482071012117132 
650	 0.481815839514492 
651	 0.481609761856611 
652	 0.481614181431784 
653	 0.481611555505323 
654	 0.481559595431058 
655	 0.481576491671771 
656	 0.481798048757711 
657	 0.482104497310751 
658	 0.482414833013111 
659	 0.482819316673258 
660	 0.483325695691876 
661	 0.483941049652525 
662	 0.484666103760852 
663	 0.485494450816088 
664	 0.486400838408435 
665	 0.487412408541387 
666	 0.488605155124678 
667	 0.489918785026775 
668	 0.491327706323821 
669	 0.49283019810294 
670	 0.494468266925179 
671	 0.496264325762556 
672	 0.498186649826511 
673	 0.500199605154842 
674	 0.502423020393671 
675	 0.504774810439015 
676	 0.507235062496221 
677	 0.509880353754325 
678	 0.512610920575382 
679	 0.515509392075847 
680	 0.518634943744271 
681	 0.521844833071272 
682	 0.525218447002069 
683	 0.528786693311972 
684	 0.532545082164956 
685	 0.53641217446209 
686	 0.540409345279863 
687	 0.544568062187348 
688	 0.548920685932689 
689	 0.553469733914398 
690	 0.558198327898791 
691	 0.563095894614331 
692	 0.568191091268096 
693	 0.573339139397043 
694	 0.578576143214191 
695	 0.584043629318882 
696	 0.589670318036513 
697	 0.595490074465524 
698	 0.601444082849866 
699	 0.60730761512473 
700	 0.613389283003485 
701	 0.619604092221139 
702	 0.625812010660741 
703	 0.632135356052448 
704	 0.638479451301237 
705	 0.644833049402475 
706	 0.65123235064009 
707	 0.657506542793476 
708	 0.663796866370094 
709	 0.670114371950279 
710	 0.676158490065603 
711	 0.682237877076216 
712	 0.688319761894365 
713	 0.694260221247697 
714	 0.699918434967191 
715	 0.705400481902619 
716	 0.710759881407461 
717	 0.715997475117738 
718	 0.721087985306976 
719	 0.72597796478293 
720	 0.730659118788245 
721	 0.735210801238514 
722	 0.739448232184822 
723	 0.743447085889779 
724	 0.747321459030891 
725	 0.751011507603543 
726	 0.754566927462277 
727	 0.757962215518195 
728	 0.761119925109836 
729	 0.764054658705594 
730	 0.766834723935031 
731	 0.769497704469365 
732	 0.77201953842588 
733	 0.774402126184885 
734	 0.776638997869072 
735	 0.778728072362916 
736	 0.780699178243258 
737	 0.782483017400839 
738	 0.784137230899268 
739	 0.78577477573205 
740	 0.787232056878778 
741	 0.788530738876224 
742	 0.78974740642223 
743	 0.791002907869145 
744	 0.792312858683459 
745	 0.793437837470958 
746	 0.794266448467832 
747	 0.79535122442437 
748	 0.796299276853689 
749	 0.797177634843846 
750	 0.798246154482782 
751	 0.799039318922905 
752	 0.799711393371587 
753	 0.800373553104809 
754	 0.800994164438509 
755	 0.801681612280649 
756	 0.802386859150819 
757	 0.80304071511897 
758	 0.803635934915056 
759	 0.804131576973846 
760	 0.804602995098542 
761	 0.805167744235203 
762	 0.805843412948249 
763	 0.806374886016653 
764	 0.80674817471681 
765	 0.807219214091944 
766	 0.807686932177625 
767	 0.80810992638362 
768	 0.808507208874599 
769	 0.809025387811509 
770	 0.809466880508389 
771	 0.80987087728878 
772	 0.810330780870574 
773	 0.810749285938361 
774	 0.811103443462366 
775	 0.811447118635083 
776	 0.8118776327787 
777	 0.81226805351326 
778	 0.812622568566715 
779	 0.812946468358375 
780	 0.813208475245146 
781	 0.813538399787619 
782	 0.813935953380213 
783	 0.814330020725927 
784	 0.814546410425447 
785	 0.814853196910922 
786	 0.815239180561838 
787	 0.815547452222337 
788	 0.815873575146721 
789	 0.816238305789868 
790	 0.816591354545899 
791	 0.816817584924491 
792	 0.817082938181278 
793	 0.817350002594212 
794	 0.817592900399899 
795	 0.817928385087926 
796	 0.818211023825194 
797	 0.818421739501343 
798	 0.818622572003821 
799	 0.819000206266921 
800	 0.819385427244686 
801	 0.819699971132626 
802	 0.819962507011925 
803	 0.820261338301255 
804	 0.820578528660315 
805	 0.820881910448558 
806	 0.821143942745835 
807	 0.821412085794633 
808	 0.821747959870088 
809	 0.822161291855977 
810	 0.822510377091706 
811	 0.822873047541124 
812	 0.82320959616467 
813	 0.823471482613907 
814	 0.823864155470128 
815	 0.824189254990261 
816	 0.824464989953967 
817	 0.824893369108449 
818	 0.825217687156576 
819	 0.825487196111317 
820	 0.825764214215845 
821	 0.826052202423252 
822	 0.826306567826833 
823	 0.826590926143727 
824	 0.826945912039305 
825	 0.82725472964865 
826	 0.827555472246875 
827	 0.827835181204907 
828	 0.828077171186671 
829	 0.828360877248112 
830	 0.828705902201063 
831	 0.829115836485364 
832	 0.829563163725637 
833	 0.829803244413827 
834	 0.830029211680383 
835	 0.830350826576652 
836	 0.830646886813401 
837	 0.830791980156984 
838	 0.831005872423316 
839	 0.831423982777988 
840	 0.83170257180636 
841	 0.831926196997955 
842	 0.832180402499339 
843	 0.832517760786071 
844	 0.832782655294533 
845	 0.8331637332171 
846	 0.833640484209194 
847	 0.834036524913364 
848	 0.834344928966803 
849	 0.834659487067397 
850	 0.835006613825941 
851	 0.835314090200919 
852	 0.835647527524189 
853	 0.836027491872063 
854	 0.836451676448683 
855	 0.836896094997453 
856	 0.837315718402953 
857	 0.837721819870663 
858	 0.838141115523825 
859	 0.838580903467381 
860	 0.83901031939648 
861	 0.839490337980849 
862	 0.8400811003069 
863	 0.840567879779632 
864	 0.840989047834268 
865	 0.841388672190421 
866	 0.841796530600533 
867	 0.842191389489438 
868	 0.842593282779761 
869	 0.842997113704478 
870	 0.843359855148139 
871	 0.843752583234812 
872	 0.844236858846643 
873	 0.844810146177061 
874	 0.845347874223976 
875	 0.845879348286191 
876	 0.84633402447074 
877	 0.846675611084302 
878	 0.847057489870838 
879	 0.847556034562402 
880	 0.848117539861197 
881	 0.848616311486045 
882	 0.848938607758776 
883	 0.849369229238288 
884	 0.849879149081805 
885	 0.850225782186793 
886	 0.850654267599929 
887	 0.851188012305892 
888	 0.851767480321038 
889	 0.852274440466747 
890	 0.852700798350532 
891	 0.853083161517753 
892	 0.853499228911281 
893	 0.854068279737231 
894	 0.854619314354663 
895	 0.855081567687207 
896	 0.855450973940174 
897	 0.85580228618139 
898	 0.856219159664537 
899	 0.85670878020375 
900	 0.857266343485601 
901	 0.857985688416303 
902	 0.858642846020097 
903	 0.85922672590735 
904	 0.859808852531963 
905	 0.860232672894331 
906	 0.860715615286743 
907	 0.861310218052472 
908	 0.861922675445286 
909	 0.862476271658836 
910	 0.862960094917013 
911	 0.863459485859123 
912	 0.864122244289127 
913	 0.864812421584629 
914	 0.86551251796417 
915	 0.866159211492437 
916	 0.866627537436711 
917	 0.867332425319456 
918	 0.867955434140734 
919	 0.868342040228789 
920	 0.868912529110877 
921	 0.869555507114424 
922	 0.870192340444872 
923	 0.870784363480729 
924	 0.871395277897306 
925	 0.871950901097876 
926	 0.872456173070663 
927	 0.872944601033892 
928	 0.873432880355855 
929	 0.874039735020529 
930	 0.874651283770467 
931	 0.875117305721116 
932	 0.875574018036201 
933	 0.876223901871446 
934	 0.876920021808395 
935	 0.877416920648318 
936	 0.878064619039423 
937	 0.878713489914476 
938	 0.879264892456232 
939	 0.879710106963904 
940	 0.880212671709255 
941	 0.880835986936857 
942	 0.881462306640638 
943	 0.881885164017785 
944	 0.882425131285891 
945	 0.882880195637288 
946	 0.883203488482444 
947	 0.88357771660692 
948	 0.884149446909063 
949	 0.884736633158097 
950	 0.885171271609246 
951	 0.885400781774621 
952	 0.885671770275189 
953	 0.886000150831685 
954	 0.886392953366668 
955	 0.88690075274632 
956	 0.88736403357053 
957	 0.887587149571589 
958	 0.887619007484055 
959	 0.887896637669047 
960	 0.888175763869703 
961	 0.888431649159185 
962	 0.888705945287599 
963	 0.889067703988588 
964	 0.889616885286689 
965	 0.89019322151307 
966	 0.890664166240942 
967	 0.891122568482207 
968	 0.891659123194662 
969	 0.892262502905633 
970	 0.892881309675935 
971	 0.893468157401249 
972	 0.893936467481958 
973	 0.894346559800362 
974	 0.894774314577537 
975	 0.895177434161821 
976	 0.895757076731969 
977	 0.896305907034296 
978	 0.89664310114604 
979	 0.897077776730483 
980	 0.897616678694174 
981	 0.898044354802352 
982	 0.898269539685083 
983	 0.898859753846874 
984	 0.899308567478762 
985	 0.899704993523868 
986	 0.900250170084008 
987	 0.900800986093871 
988	 0.901134663953069 
989	 0.901280955228951 
990	 0.901424863771062 
991	 0.901861528378491 
992	 0.902408808498112 
993	 0.902779061030102 
994	 0.902875792005464 
995	 0.903328198740239 
996	 0.90370705203875 
997	 0.90397453150258 
998	 0.904262061495826 
999	 0.904754779694219 
1000	 0.905162366527627 
1001	 0.899586367539679 
1002	 0.899860361866685 
1003	 0.900126757517842 
1004	 0.900357038022605 
1005	 0.900610381286187 
1006	 0.900800129732767 
1007	 0.900885533027638 
1008	 0.901080288837826 
1009	 0.901305924301485 
1010	 0.901508191760935 
1011	 0.901766121722768 
1012	 0.901985832296975 
1013	 0.902167446434539 
1014	 0.902353526680967 
1015	 0.902581679239075 
1016	 0.902700043128705 
1017	 0.902807638345141 
1018	 0.902983927698866 
1019	 0.903123763110246 
1020	 0.903306664027956 
1021	 0.903534338771196 
1022	 0.903827325740554 
1023	 0.904060467994722 
1024	 0.904299993344177 
1025	 0.904550867610013 
1026	 0.904761899470415 
1027	 0.905010243680555 
1028	 0.905274409881671 
1029	 0.905599257948465 
1030	 0.90594056736502 
1031	 0.906233370459895 
1032	 0.906531700063784 
1033	 0.906846221906189 
1034	 0.907185652699983 
1035	 0.907510781575376 
1036	 0.907786987415255 
1037	 0.908059972532945 
1038	 0.908341985014336 
1039	 0.908547856063279 
1040	 0.908830690219667 
1041	 0.909196564360747 
1042	 0.909486035660221 
1043	 0.909761584054494 
1044	 0.910015812601502 
1045	 0.910241398960254 
1046	 0.910558868124895 
1047	 0.910793331638146 
1048	 0.911003363859609 
1049	 0.911255994348638 
1050	 0.911433139988926 
1051	 0.911649678081655 
1052	 0.911836888662942 
1053	 0.912013407423278 
1054	 0.912165760576494 
1055	 0.91232161748311 
1056	 0.912464983765406 
1057	 0.912637642951103 
1058	 0.912841069925713 
1059	 0.912959597534207 
1060	 0.913092060954828 
1061	 0.913233364436259 
1062	 0.913302142746052 
1063	 0.913385430855934 
1064	 0.913530761667124 
1065	 0.913628660774093 
1066	 0.913711792563141 
1067	 0.913806130185777 
1068	 0.913807859714817 
1069	 0.913777070724107 
1070	 0.91378719614006 
1071	 0.913799929315682 
1072	 0.913826484768873 
1073	 0.913889499215041 
1074	 0.913941703899583 
1075	 0.913976285275741 
1076	 0.913975282348806 
1077	 0.913967120963035 
1078	 0.913987502872283 
1079	 0.91399812283415 
1080	 0.914020478936251 
1081	 0.914054383051668 
1082	 0.914110632945089 
1083	 0.91414336511006 
1084	 0.914148385070816 
1085	 0.91419212030572 
1086	 0.914214990001752 
1087	 0.914203256634647 
1088	 0.914227979477025 
1089	 0.914310445174244 
1090	 0.914328497410371 
1091	 0.914352204320574 
1092	 0.914395046730498 
1093	 0.914410232151261 
1094	 0.914475579457025 
1095	 0.914544128682343 
1096	 0.914560405810223 
1097	 0.914572709129956 
1098	 0.91453929919701 
1099	 0.914505446353747 
1100	 0.914494809605603 
1101	 0.914494070230111 
1102	 0.914574373684886 
1103	 0.914619752703696 
1104	 0.914668347324942 
1105	 0.914702560026361 
1106	 0.914756191861437 
1107	 0.914759449949255 
1108	 0.914811536524664 
1109	 0.914905330667743 
1110	 0.914977542979712 
1111	 0.915030016066095 
1112	 0.915011472166736 
1113	 0.914991567992144 
1114	 0.915009706924995 
1115	 0.915009390279143 
1116	 0.915014742134717 
1117	 0.915064270131257 
1118	 0.915108495748311 
1119	 0.915156844014468 
1120	 0.915181239976273 
1121	 0.915218167679412 
1122	 0.91522766727134 
1123	 0.915196336910425 
1124	 0.915187193504361 
1125	 0.915225645435079 
1126	 0.915213192761264 
1127	 0.915180715197417 
1128	 0.915164295729518 
1129	 0.915105189124392 
1130	 0.915015696540939 
1131	 0.914894592617752 
1132	 0.914771281327287 
1133	 0.914672685644434 
1134	 0.914581513102968 
1135	 0.91443800898774 
1136	 0.914292137313824 
1137	 0.914109341942833 
1138	 0.913853039783375 
1139	 0.913615617561361 
1140	 0.913367177606148 
1141	 0.91317350681036 
1142	 0.912923471327818 
1143	 0.912651896306878 
1144	 0.912411439733948 
1145	 0.912087723149964 
1146	 0.911774732960838 
1147	 0.911496567784012 
1148	 0.911165150273622 
1149	 0.910848051005106 
1150	 0.910546914409617 
1151	 0.910238151393152 
1152	 0.909897651741101 
1153	 0.909567810551291 
1154	 0.90918348578943 
1155	 0.908730279547205 
1156	 0.908297972613418 
1157	 0.907869752479319 
1158	 0.907421042808209 
1159	 0.906957684961564 
1160	 0.906496124152964 
1161	 0.906008745124336 
1162	 0.905481483490901 
1163	 0.904978885023733 
1164	 0.904458581379805 
1165	 0.903946595064903 
1166	 0.903482252642601 
1167	 0.903021865943145 
1168	 0.902595657003463 
1169	 0.902179347657947 
1170	 0.901762370450218 
1171	 0.901383564759623 
1172	 0.901044864299076 
1173	 0.900697682634957 
1174	 0.900357339859854 
1175	 0.900062226654472 
1176	 0.899797354781284 
1177	 0.899519913781461 
1178	 0.899271931978678 
1179	 0.899025756394794 
1180	 0.898765447626714 
1181	 0.898469827959423 
1182	 0.898151777358364 
1183	 0.897823717644702 
1184	 0.89745886220798 
1185	 0.897124062037936 
1186	 0.896809519863004 
1187	 0.896520817321701 
1188	 0.896232844451402 
1189	 0.895951072054691 
1190	 0.895688940273566 
1191	 0.895418218790379 
1192	 0.895212680933816 
1193	 0.895043403547419 
1194	 0.89489550053388 
1195	 0.894827043831457 
1196	 0.894712795426166 
1197	 0.894584498792359 
1198	 0.894470155675702 
1199	 0.894352461297205 
1200	 0.89425938869239 
1201	 0.894216639242386 
1202	 0.89417546301694 
1203	 0.894098734989145 
1204	 0.894040309754688 
1205	 0.893996195277839 
1206	 0.893934828320619 
1207	 0.893922241316284 
1208	 0.893939232634127 
1209	 0.89397815859905 
1210	 0.894025942127839 
1211	 0.894120648553463 
1212	 0.894247608072239 
1213	 0.89442083258907 
1214	 0.894598698790772 
1215	 0.894879415577874 
1216	 0.89523486092692 
1217	 0.89563208934784 
1218	 0.896114408696301 
1219	 0.896629492600731 
1220	 0.89717370044126 
1221	 0.897781785611345 
1222	 0.898383880490657 
1223	 0.899040738220706 
1224	 0.899680482522695 
1225	 0.900337526585272 
1226	 0.900950267798091 
1227	 0.901572735992533 
1228	 0.902147265092756 
1229	 0.90267623023449 
1230	 0.903208512299176 
1231	 0.903752191498242 
1232	 0.904226216228512 
1233	 0.904652166093475 
1234	 0.905067488973548 
1235	 0.905424098851773 
1236	 0.905785937632856 
1237	 0.906164262504475 
1238	 0.906499847088102 
1239	 0.906782613903883 
1240	 0.907091432986077 
1241	 0.907386944544591 
1242	 0.907622906689801 
1243	 0.907850850964824 
1244	 0.908053101396337 
1245	 0.908268015768901 
1246	 0.908463718746041 
1247	 0.908659366129571 
1248	 0.908856869576163 
1249	 0.909064971837621 
1250	 0.909260047010818 
1251	 0.909461940637686 
1252	 0.909707169503817 
1253	 0.909902801479634 
1254	 0.910056813462489 
1255	 0.910229398514861 
1256	 0.910396210461243 
1257	 0.910555862544879 
1258	 0.910723516883508 
1259	 0.910877865536849 
1260	 0.911022382471508 
1261	 0.911155428858669 
1262	 0.911278931934414 
1263	 0.911402106716642 
1264	 0.911491545746135 
1265	 0.911556885552072 
1266	 0.911614796128093 
1267	 0.911656304920945 
1268	 0.911676628262603 
1269	 0.911675608122062 
1270	 0.911678725605736 
1271	 0.911672927369917 
1272	 0.91164290579462 
1273	 0.911615250172738 
1274	 0.911554657274941 
1275	 0.911429505510838 
1276	 0.911350401946318 
1277	 0.911276986940991 
1278	 0.911207244225107 
1279	 0.911181748286555 
1280	 0.911109828679581 
1281	 0.910996645769958 
1282	 0.910906672295571 
1283	 0.910782307869968 
1284	 0.910697609840004 
1285	 0.910637146459741 
1286	 0.910625576013515 
1287	 0.910553051152461 
1288	 0.910487289994146 
1289	 0.910389745387871 
1290	 0.910239003995025 
1291	 0.910131734717118 
1292	 0.910041762507716 
1293	 0.909930825218076 
1294	 0.909830941390972 
1295	 0.909702811455573 
1296	 0.909537287595372 
1297	 0.909399969259742 
1298	 0.909271182355529 
1299	 0.909128628109716 
1300	 0.90898424701448 
1301	 0.908848370937989 
1302	 0.908709605549434 
1303	 0.908564483130888 
1304	 0.908438587053377 
1305	 0.908291690909024 
1306	 0.908125792538521 
1307	 0.907952774107985 
1308	 0.907759983323961 
1309	 0.90758053540305 
1310	 0.907394366821314 
1311	 0.907196293110586 
1312	 0.907014738838605 
1313	 0.906830492840314 
1314	 0.906678421455313 
1315	 0.906553322086781 
1316	 0.906405689278227 
1317	 0.906275400190498 
1318	 0.906127645792977 
1319	 0.905951030355867 
1320	 0.905797682366414 
1321	 0.905653120370525 
1322	 0.905513032510361 
1323	 0.905388950555531 
1324	 0.905246472910013 
1325	 0.905100289900101 
1326	 0.904953908618528 
1327	 0.904780741119743 
1328	 0.904637708905273 
1329	 0.904539038754035 
1330	 0.904397747047334 
1331	 0.90425481479666 
1332	 0.904095444152079 
1333	 0.903914654717717 
1334	 0.903705997345861 
1335	 0.90349465723943 
1336	 0.903283534013165 
1337	 0.903046967566763 
1338	 0.902784396937621 
1339	 0.902526072539967 
1340	 0.902251623874534 
1341	 0.901989967001558 
1342	 0.901730446718694 
1343	 0.901463835216019 
1344	 0.901217475955927 
1345	 0.900924801597568 
1346	 0.900624412354939 
1347	 0.900279432171708 
1348	 0.899903869440743 
1349	 0.899494111208806 
1350	 0.899047182580852 
1351	 0.898574028437117 
1352	 0.898057628306703 
1353	 0.897536540805619 
1354	 0.896990033699013 
1355	 0.89643664119717 
1356	 0.895873946743051 
1357	 0.895295402376163 
1358	 0.894653495245229 
1359	 0.89407580355392 
1360	 0.893510118666386 
1361	 0.89296921976296 
1362	 0.892469600283819 
1363	 0.89203090455923 
1364	 0.891582481587579 
1365	 0.891155492313319 
1366	 0.890724992137195 
1367	 0.89030224691873 
1368	 0.889899257886974 
1369	 0.889522925504638 
1370	 0.88910457635806 
1371	 0.88870330582403 
1372	 0.888256121414875 
1373	 0.887778688449959 
1374	 0.887261670019285 
1375	 0.886753383633049 
1376	 0.886133895398355 
1377	 0.885435868890417 
1378	 0.884688889523839 
1379	 0.883842156204383 
1380	 0.882992028547303 
1381	 0.882094695927988 
1382	 0.881177710667445 
1383	 0.880215006915542 
1384	 0.879257674165441 
1385	 0.878323772841074 
1386	 0.877321707140873 
1387	 0.876326142676836 
1388	 0.875266219337751 
1389	 0.874164455072015 
1390	 0.872989788715803 
1391	 0.871788896392798 
1392	 0.870459875597146 
1393	 0.869143642980462 
1394	 0.867762168432261 
1395	 0.86637695509426 
1396	 0.864969978470499 
1397	 0.863577037039097 
1398	 0.862182143771223 
1399	 0.860726526374068 
1400	 0.859309343468007 
1401	 0.857725365519587 
1402	 0.856110689517907 
1403	 0.854252199049556 
1404	 0.852323269899006 
1405	 0.850104693345373 
1406	 0.847642026331988 
1407	 0.845036778148952 
1408	 0.842069039690023 
1409	 0.83927552426866 
1410	 0.836155357358181 
1411	 0.833576110081066 
1412	 0.83094583112651 
1413	 0.829074673223678 
1414	 0.82761526848792 
1415	 0.826702166417038 
1416	 0.82656022345937 
1417	 0.826501704611931 
1418	 0.827061688069153 
1419	 0.82744432699489 
1420	 0.828093006030623 
1421	 0.828481373951475 
1422	 0.828818854834746 
1423	 0.828968235885942 
1424	 0.828909181800231 
1425	 0.828754964521268 
1426	 0.828516130104935 
1427	 0.82817290151448 
1428	 0.827801571146581 
1429	 0.827414855692019 
1430	 0.827012198087521 
1431	 0.826559088877548 
1432	 0.826139638558967 
1433	 0.825711978107766 
1434	 0.825313164697728 
1435	 0.824923974276691 
1436	 0.824547889024373 
1437	 0.824193866299106 
1438	 0.823842393625043 
1439	 0.823488298172735 
1440	 0.823168232552261 
1441	 0.822867414790017 
1442	 0.822579194221291 
1443	 0.822317561887345 
1444	 0.82205520418258 
1445	 0.821794698582045 
1446	 0.821560005659535 
1447	 0.821348978928686 
1448	 0.821131541393736 
1449	 0.820924566854657 
1450	 0.820724026160713 
1451	 0.820520050415126 
1452	 0.820330591470737 
1453	 0.820154077003939 
1454	 0.819989035574525 
1455	 0.81983678363601 
1456	 0.819685959643168 
1457	 0.819557605125963 
1458	 0.819413710247398 
1459	 0.819269312688259 
1460	 0.819110774715314 
1461	 0.81893240683037 
1462	 0.818764065050433 
1463	 0.818584673373782 
1464	 0.818418026716126 
1465	 0.818269613181236 
1466	 0.81810673579257 
1467	 0.817960014282728 
1468	 0.817818801435504 
1469	 0.817701016799708 
1470	 0.817611536037075 
1471	 0.817520910916747 
1472	 0.817461851245752 
1473	 0.817361530523118 
1474	 0.817248570833464 
1475	 0.817133110999491 
1476	 0.817007570273486 
1477	 0.816866051769194 
1478	 0.816732593369242 
1479	 0.816554125845353 
1480	 0.816339337068951 
1481	 0.816118922581268 
1482	 0.815868685895391 
1483	 0.815622427014855 
1484	 0.815376566685331 
1485	 0.815103168781676 
1486	 0.814811151528407 
1487	 0.814516657174344 
1488	 0.81418671228768 
1489	 0.813890929646972 
1490	 0.813592010495046 
1491	 0.813328062764998 
1492	 0.813090325349706 
1493	 0.81286262088731 
1494	 0.812651792559986 
1495	 0.812467077469465 
1496	 0.812284857750179 
1497	 0.812149804761515 
1498	 0.812048068551963 
1499	 0.811982919767649 
1500	 0.811945409259474 
1501	 0.811959428518428 
1502	 0.812023793972527 
1503	 0.812114117791019 
1504	 0.812230803149901 
1505	 0.812408880398522 
1506	 0.812633133231529 
1507	 0.812894155724796 
1508	 0.813246731523641 
1509	 0.813576841093116 
1510	 0.813932188751087 
1511	 0.814271752925662 
1512	 0.8145966419215 
1513	 0.814934501360421 
1514	 0.815279915023122 
1515	 0.81561923966137 
1516	 0.815963610066726 
1517	 0.81630697493923 
1518	 0.816648634635275 
1519	 0.81697986045293 
1520	 0.817307451891436 
1521	 0.817625849478292 
1522	 0.817954351170242 
1523	 0.818313489694744 
1524	 0.818676853448226 
1525	 0.819070797011812 
1526	 0.81945009690576 
1527	 0.819826363445505 
1528	 0.820208596717923 
1529	 0.820587395878741 
1530	 0.820999978724299 
1531	 0.821429157420504 
1532	 0.82185755276832 
1533	 0.822310233870483 
1534	 0.822754984820724 
1535	 0.823184295478014 
1536	 0.823644367557085 
1537	 0.824133052189456 
1538	 0.824601276365864 
1539	 0.82508154876737 
1540	 0.825537196927884 
1541	 0.825969479828293 
1542	 0.826419968333684 
1543	 0.826889673383826 
1544	 0.827301742525911 
1545	 0.827701242087809 
1546	 0.828077012223732 
1547	 0.828412508276958 
1548	 0.828727865041599 
1549	 0.829033524578402 
1550	 0.829313763753166 
1551	 0.829550921977888 
1552	 0.829783810622102 
1553	 0.83001603386327 
1554	 0.830213775893358 
1555	 0.830372569096613 
1556	 0.830536522335721 
1557	 0.830677456653508 
1558	 0.830830442123898 
1559	 0.830992907042678 
1560	 0.831131616494007 
1561	 0.831248338500121 
1562	 0.831389902942327 
1563	 0.831516434706904 
1564	 0.831671633605444 
1565	 0.831871748348669 
1566	 0.832040986811253 
1567	 0.832195083845931 
1568	 0.832369697017582 
1569	 0.832532507225934 
1570	 0.832725644076664 
1571	 0.832956696664214 
1572	 0.833170705099627 
1573	 0.833383542684794 
1574	 0.833611233178125 
1575	 0.833855893936907 
1576	 0.834076981789917 
1577	 0.834302116481748 
1578	 0.834517721835969 
1579	 0.834687445227956 
1580	 0.834904555644014 
1581	 0.835154837707153 
1582	 0.835392894450303 
1583	 0.835647596515838 
1584	 0.835896878711057 
1585	 0.836140934878038 
1586	 0.836381217780248 
1587	 0.836622124309047 
1588	 0.836863191721459 
1589	 0.83709019797181 
1590	 0.837333991590993 
1591	 0.837595191547277 
1592	 0.837848342992426 
1593	 0.83810538470239 
1594	 0.838357752858159 
1595	 0.83861437889932 
1596	 0.838852856632549 
1597	 0.839072317236916 
1598	 0.839304946385163 
1599	 0.839513361528461 
1600	 0.839756556135602 
1601	 0.840040082257511 
1602	 0.840305970756333 
1603	 0.840587875127636 
1604	 0.840851156035006 
1605	 0.841094095094539 
1606	 0.841340643854642 
1607	 0.841598489868385 
1608	 0.841828231072767 
1609	 0.842045694522537 
1610	 0.842250723029765 
1611	 0.842418419229839 
1612	 0.842599598793148 
1613	 0.842792137078491 
1614	 0.842963348601298 
1615	 0.84312176198897 
1616	 0.843284369653299 
1617	 0.843425364324475 
1618	 0.843582159617441 
1619	 0.843767668830377 
1620	 0.843924845675477 
1621	 0.844085291195188 
1622	 0.844216763605827 
1623	 0.844306913064809 
1624	 0.84440878281004 
1625	 0.844498171923802 
1626	 0.844588472865921 
1627	 0.844679777129908 
1628	 0.844774427608383 
1629	 0.84487075938796 
1630	 0.84495920583833 
1631	 0.845064556624312 
1632	 0.845140103901481 
1633	 0.845176421250868 
1634	 0.845234971416132 
1635	 0.84528846739489 
1636	 0.845341580406983 
1637	 0.845421384231657 
1638	 0.845474527695493 
1639	 0.845498298944996 
1640	 0.845536838176144 
1641	 0.845584299182847 
1642	 0.845609940432257 
1643	 0.845650554538008 
1644	 0.845645658276368 
1645	 0.845598420464909 
1646	 0.845539448573595 
1647	 0.845445533866263 
1648	 0.845359707306467 
1649	 0.845288943229156 
1650	 0.845169514309183 
1651	 0.845019206826407 
1652	 0.84486012541819 
1653	 0.844692023035296 
1654	 0.84446246557396 
1655	 0.844207518279606 
1656	 0.843919512456094 
1657	 0.843569229144696 
1658	 0.843190611438896 
1659	 0.842812434053492 
1660	 0.842361508320468 
1661	 0.841831107081706 
1662	 0.84129472654172 
1663	 0.840720080479383 
1664	 0.840104638190122 
1665	 0.839485527245058 
1666	 0.838778873790364 
1667	 0.837993379903517 
1668	 0.83719875257051 
1669	 0.836402851273784 
1670	 0.835471225737748 
1671	 0.834467975015957 
1672	 0.833385581798781 
1673	 0.832183177698989 
1674	 0.830910960749727 
1675	 0.82957656728319 
1676	 0.828203115336531 
1677	 0.826734590567913 
1678	 0.825238783054378 
1679	 0.823724282880796 
1680	 0.822114240136118 
1681	 0.82041137049957 
1682	 0.818680438775711 
1683	 0.816867552451525 
1684	 0.815105544168072 
1685	 0.813311663716559 
1686	 0.81154741051151 
1687	 0.809792144029728 
1688	 0.808044620233982 
1689	 0.806284383962642 
1690	 0.804586757681655 
1691	 0.802921207737733 
1692	 0.801336294074511 
1693	 0.7998487306762 
1694	 0.798317361042635 
1695	 0.796815683151741 
1696	 0.795271222292124 
1697	 0.793711511182319 
1698	 0.792094808246501 
1699	 0.790493977997028 
1700	 0.788831215780711 
1701	 0.787099381128601 
1702	 0.785340534411709 
1703	 0.783515987771324 
1704	 0.781687515542751 
1705	 0.779780036032668 
1706	 0.777905922513309 
1707	 0.776217238268701 
1708	 0.774574355307022 
1709	 0.77302231873239 
1710	 0.771590876599004 
1711	 0.770101874895127 
1712	 0.768711087467128 
1713	 0.767320539623094 
1714	 0.765892627353452 
1715	 0.764540917230901 
1716	 0.763077667272845 
1717	 0.761622965713437 
1718	 0.760204455671981 
1719	 0.758721356536079 
1720	 0.757327711567804 
1721	 0.755994456740084 
1722	 0.754704213089327 
1723	 0.753573906188778 
1724	 0.752524466545461 
1725	 0.751610429940895 
1726	 0.750906110496997 
1727	 0.750396183822409 
1728	 0.7501678779677 
1729	 0.750300435578583 
1730	 0.750766863421231 
1731	 0.751475442845354 
1732	 0.752501232878724 
1733	 0.753685697650722 
1734	 0.755064910019968 
1735	 0.756695918709317 
1736	 0.758367020300477 
1737	 0.760105895284176 
1738	 0.761820765716845 
1739	 0.76335454835945 
1740	 0.764862917992151 
1741	 0.766181104849388 
1742	 0.767361211984275 
1743	 0.76839361845316 
1744	 0.769277176294258 
1745	 0.769993360376384 
1746	 0.770544048047847 
1747	 0.770919022296534 
1748	 0.771075202193124 
1749	 0.771165335989662 
1750	 0.771080219209054 
1751	 0.770977469554959 
1752	 0.770795640206876 
1753	 0.770572552044763 
1754	 0.770271067396147 
1755	 0.76996073999925 
1756	 0.769578113995276 
1757	 0.769259674063173 
1758	 0.768918944195276 
1759	 0.768630381725614 
1760	 0.768445543494422 
1761	 0.768340624787059 
1762	 0.768394472503014 
1763	 0.768664287351204 
1764	 0.769046715202515 
1765	 0.769600367672308 
1766	 0.770366081338852 
1767	 0.771258517356473 
1768	 0.772301128377854 
1769	 0.773440547798918 
1770	 0.77453856958706 
1771	 0.775664312936294 
1772	 0.776774346004049 
1773	 0.777874389466471 
1774	 0.77899126385368 
1775	 0.779980246955806 
1776	 0.780948447164901 
1777	 0.781865706270956 
1778	 0.782630012356728 
1779	 0.783360124810417 
1780	 0.784007242220167 
1781	 0.784538791760981 
1782	 0.785071196208128 
1783	 0.785558175782317 
1784	 0.785983978338007 
1785	 0.786339105962024 
1786	 0.786686934710419 
1787	 0.787010291226091 
1788	 0.787307587365801 
1789	 0.787582651704207 
1790	 0.787844487601993 
1791	 0.788072756522482 
1792	 0.788315525713387 
1793	 0.788557701840223 
1794	 0.788756053513249 
1795	 0.788927689358278 
1796	 0.78903372758649 
1797	 0.789181242447237 
1798	 0.789387881993585 
1799	 0.789562857461086 
1800	 0.789773387153676 
1801	 0.775539060347588 
1802	 0.775937714612513 
1803	 0.776399278724814 
1804	 0.776963946578495 
1805	 0.777616617387611 
1806	 0.778232946857782 
1807	 0.778931020032731 
1808	 0.779546940645682 
1809	 0.780189546159628 
1810	 0.780721095917892 
1811	 0.781215696941104 
1812	 0.78163823818609 
1813	 0.781944331933779 
1814	 0.782280793117732 
1815	 0.782567117540638 
1816	 0.782806570377489 
1817	 0.783029189669761 
1818	 0.783219510838179 
1819	 0.783391476258224 
1820	 0.783493741872932 
1821	 0.783663058181265 
1822	 0.783859813906947 
1823	 0.784026287214929 
1824	 0.784228249748943 
1825	 0.784464022172576 
1826	 0.784675506967421 
1827	 0.784888814779053 
1828	 0.785072356805348 
1829	 0.785269748625084 
1830	 0.785413698945123 
1831	 0.785503857040734 
1832	 0.78560956905696 
1833	 0.785682038422984 
1834	 0.78573481800716 
1835	 0.78580018103656 
1836	 0.785886116650288 
1837	 0.785998396664611 
1838	 0.786126702935471 
1839	 0.786276074529885 
1840	 0.786458748093666 
1841	 0.786639869624408 
1842	 0.786827332244262 
1843	 0.787051134176832 
1844	 0.787292941573043 
1845	 0.787493114629343 
1846	 0.78767276080884 
1847	 0.787834013024101 
1848	 0.787955823703716 
1849	 0.788008656757883 
1850	 0.788100833605949 
1851	 0.788196262468183 
1852	 0.78827675567385 
1853	 0.788342412956658 
1854	 0.788350397254648 
1855	 0.788315848209084 
1856	 0.788230594293331 
1857	 0.788064614928518 
1858	 0.787904988236156 
1859	 0.787696086430378 
1860	 0.787427022322868 
1861	 0.787112644718632 
1862	 0.786795962042646 
1863	 0.786406453645684 
1864	 0.78586754947884 
1865	 0.785284604751721 
1866	 0.784552537832515 
1867	 0.78367014657881 
1868	 0.782727847426894 
1869	 0.78169571044536 
1870	 0.780609566750956 
1871	 0.779403485370076 
1872	 0.778261458485869 
1873	 0.777081184253929 
1874	 0.775912507908855 
1875	 0.774819084989518 
1876	 0.773628005478074 
1877	 0.772496379809507 
1878	 0.771258307857744 
1879	 0.769896308849275 
1880	 0.76857079529951 
1881	 0.767041764135122 
1882	 0.76535300297757 
1883	 0.763585960492507 
1884	 0.761649720275249 
1885	 0.759396677801535 
1886	 0.757087679641045 
1887	 0.754525350570367 
1888	 0.751738495112748 
1889	 0.749059697820345 
1890	 0.746128080511234 
1891	 0.743129355845393 
1892	 0.740086422739819 
1893	 0.736760743790075 
1894	 0.73314388953549 
1895	 0.729559644939732 
1896	 0.725762310312692 
1897	 0.721802176238662 
1898	 0.718107009167803 
1899	 0.714183843193675 
1900	 0.710312386041638 
1901	 0.706501435221537 
1902	 0.70233449799334 
1903	 0.698332416514206 
1904	 0.694388496542478 
1905	 0.690389305300097 
1906	 0.686473180972935 
1907	 0.683006920391938 
1908	 0.679461839318487 
1909	 0.676034113379796 
1910	 0.672784090925289 
1911	 0.669304919374825 
1912	 0.666039442819419 
1913	 0.662823258218699 
1914	 0.659533721709401 
1915	 0.656489193130171 
1916	 0.653670403276351 
1917	 0.65078522620705 
1918	 0.648023254548128 
1919	 0.645461060946769 
1920	 0.642749320624189 
1921	 0.640232387490303 
1922	 0.637778155618523 
1923	 0.635313390452461 
1924	 0.63314543192435 
1925	 0.631007352228039 
1926	 0.628947812844132 
1927	 0.627044764887326 
1928	 0.625148186723357 
1929	 0.62324207183858 
1930	 0.621499893094289 
1931	 0.619861365439622 
1932	 0.618297134343884 
1933	 0.616989078628671 
1934	 0.615746274027687 
1935	 0.614581394495153 
1936	 0.613573162322028 
1937	 0.6126210190496 
1938	 0.611722824538274 
1939	 0.610972121251284 
1940	 0.610327719427878 
1941	 0.609784134276433 
1942	 0.60938968209402 
1943	 0.609075106992296 
1944	 0.608847886229221 
1945	 0.608726746094029 
1946	 0.608677420950583 
1947	 0.608702862942402 
1948	 0.6088268745765 
1949	 0.609007630288698 
1950	 0.609243941294505 
1951	 0.609558930266624 
1952	 0.609916867247902 
1953	 0.610317292303242 
1954	 0.610784080576082 
1955	 0.611346478011267 
1956	 0.611886411089187 
1957	 0.612494165646878 
1958	 0.613178823667593 
1959	 0.613831225869436 
1960	 0.614569250609605 
1961	 0.615315162865534 
1962	 0.61607801366008 
1963	 0.616876102152235 
1964	 0.617720692901405 
1965	 0.618555996727155 
1966	 0.619426057242793 
1967	 0.620314126330073 
1968	 0.621117624799372 
1969	 0.621927412575312 
1970	 0.62270984137506 
1971	 0.623462680424025 
1972	 0.624290418858242 
1973	 0.625085992103268 
1974	 0.625885674863347 
1975	 0.626704315564581 
1976	 0.627504652367762 
1977	 0.628271186509465 
1978	 0.629083923859847 
1979	 0.629908332828247 
1980	 0.63072435566876 
1981	 0.631628905247198 
1982	 0.632529316097433 
1983	 0.633481644650125 
1984	 0.634479595490506 
1985	 0.635385070420392 
1986	 0.636288032350723 
1987	 0.637166443177659 
1988	 0.637966315569107 
1989	 0.638823872465886 
1990	 0.639698193112983 
1991	 0.640567910199787 
1992	 0.641460518130432 
1993	 0.64235580903138 
1994	 0.643171710854524 
1995	 0.644034596449105 
1996	 0.64485799630747 
1997	 0.64565239921561 
1998	 0.646503785185778 
1999	 0.647396522673564 
2000	 0.64824541700511 
2001	 0.649136581430095 
2002	 0.649967370877874 
2003	 0.650744462223009 
2004	 0.651527948696344 
2005	 0.652267407459931 
2006	 0.653027120391681 
2007	 0.653802659262493 
2008	 0.654557185468817 
2009	 0.655317978676961 
2010	 0.656094470729324 
2011	 0.65674966927171 
2012	 0.657403944554915 
2013	 0.658007037348474 
2014	 0.658528339663245 
2015	 0.659059777151303 
2016	 0.659614347258136 
2017	 0.660062954123558 
2018	 0.660475647551254 
2019	 0.660827299390937 
2020	 0.661109824177773 
2021	 0.661317885155032 
2022	 0.661498841879871 
2023	 0.661577658239152 
2024	 0.661572091492877 
2025	 0.661504081639566 
2026	 0.661336608237556 
2027	 0.661058960562536 
2028	 0.66075522268142 
2029	 0.660362423022261 
2030	 0.659935269045818 
2031	 0.659458838552895 
2032	 0.658948251983626 
2033	 0.65834987894273 
2034	 0.657770692166215 
2035	 0.657146803636023 
2036	 0.656551867070638 
2037	 0.65599544557362 
2038	 0.655446755577308 
2039	 0.654950576524419 
2040	 0.654492914110517 
2041	 0.654090620635966 
2042	 0.653675306996379 
2043	 0.653423235276103 
2044	 0.653273541021439 
2045	 0.653198546011289 
2046	 0.653260836676988 
2047	 0.653352829680401 
2048	 0.653491889780431 
2049	 0.653706406913569 
2050	 0.654004947635721 
2051	 0.654340694048396 
2052	 0.654754831724338 
2053	 0.655228762136179 
2054	 0.655728379628503 
2055	 0.656265803995931 
2056	 0.656865140859035 
2057	 0.657473959261504 
2058	 0.658222609304314 
2059	 0.659074215380395 
2060	 0.659957108968132 
2061	 0.66099527408422 
2062	 0.661973561166795 
2063	 0.662928702954826 
2064	 0.663963805417629 
2065	 0.665039503561346 
2066	 0.66609220626825 
2067	 0.667320764599909 
2068	 0.668520046575741 
2069	 0.669721335121366 
2070	 0.670991839267603 
2071	 0.67217188918784 
2072	 0.673316327563271 
2073	 0.674431735574694 
2074	 0.67548539172452 
2075	 0.676563671523436 
2076	 0.677641130248551 
2077	 0.67867782647502 
2078	 0.679770481263292 
2079	 0.680733886452609 
2080	 0.681606138864935 
2081	 0.682443246445722 
2082	 0.683207608953842 
2083	 0.683888423405371 
2084	 0.684617158207372 
2085	 0.685275421956557 
2086	 0.685910357166697 
2087	 0.686534430384091 
2088	 0.687097370684158 
2089	 0.687588624993995 
2090	 0.688088388637641 
2091	 0.688563859366201 
2092	 0.68900712699185 
2093	 0.689444063994799 
2094	 0.689825703024292 
2095	 0.690177613919662 
2096	 0.690470481309201 
2097	 0.690708072827109 
2098	 0.690904191759043 
2099	 0.691062552023914 
2100	 0.691179546311396 
2101	 0.691274615903423 
2102	 0.69134311713892 
2103	 0.691378630913157 
2104	 0.691360826694568 
2105	 0.691363133558953 
2106	 0.691339140501299 
2107	 0.691333082380357 
2108	 0.691364346979712 
2109	 0.691328795290715 
2110	 0.691266238465223 
2111	 0.691189978778494 
2112	 0.691070285407624 
2113	 0.690942612548227 
2114	 0.690800281687118 
2115	 0.690654418701819 
2116	 0.690500269131765 
2117	 0.690327913450296 
2118	 0.690119501257715 
2119	 0.689907131771674 
2120	 0.68965487009216 
2121	 0.689322618272918 
2122	 0.68905483378381 
2123	 0.688815760631921 
2124	 0.688528783051659 
2125	 0.688250050613784 
2126	 0.687943614332274 
2127	 0.687616344304345 
2128	 0.687237326360981 
2129	 0.686832075400748 
2130	 0.6864047453178 
2131	 0.685959695358801 
2132	 0.6854401851903 
2133	 0.684957102577586 
2134	 0.684307956037237 
2135	 0.683486848592191 
2136	 0.682618202146149 
2137	 0.681669500699365 
2138	 0.680581948868088 
2139	 0.679485736293916 
2140	 0.678346295909784 
2141	 0.677145619523334 
2142	 0.675878313062482 
2143	 0.674566781050803 
2144	 0.673139511934026 
2145	 0.671816932831381 
2146	 0.670434325863594 
2147	 0.669156539118368 
2148	 0.668018238329418 
2149	 0.666818778750425 
2150	 0.665643791360857 
2151	 0.664460165405828 
2152	 0.663264162122135 
2153	 0.662083532965424 
2154	 0.660851805934317 
2155	 0.659562816793754 
2156	 0.658285711895183 
2157	 0.656963069105054 
2158	 0.655640378039808 
2159	 0.654375351179156 
2160	 0.652952024212405 
2161	 0.651414878625375 
2162	 0.649931173473905 
2163	 0.648308090536086 
2164	 0.646854331141899 
2165	 0.645477584080095 
2166	 0.644137240482869 
2167	 0.642915976041809 
2168	 0.641641715641405 
2169	 0.640310075875742 
2170	 0.639121425882169 
2171	 0.63790340686141 
2172	 0.636856910208811 
2173	 0.635996871181863 
2174	 0.635188385045013 
2175	 0.634467446965954 
2176	 0.633836453152603 
2177	 0.633223488648395 
2178	 0.632652944123303 
2179	 0.632184359233468 
2180	 0.631768444286032 
2181	 0.631448590354653 
2182	 0.631261390648477 
2183	 0.631055341149183 
2184	 0.630899296377415 
2185	 0.630785135350164 
2186	 0.630693806831123 
2187	 0.630669745246491 
2188	 0.630703482535496 
2189	 0.630790547541847 
2190	 0.630939922499972 
2191	 0.631133288775458 
2192	 0.631413305390596 
2193	 0.631695326795603 
2194	 0.63206594594808 
2195	 0.632372426665905 
2196	 0.632687439551562 
2197	 0.632957778209643 
2198	 0.633157001360077 
2199	 0.63333580837135 
2200	 0.633534588687234 
2201	 0.633714375404499 
2202	 0.633904473019188 
2203	 0.634125451227849 
2204	 0.634282017366699 
2205	 0.63441192685295 
2206	 0.634516048188599 
2207	 0.634567415687455 
2208	 0.634644152442757 
2209	 0.634719191249893 
2210	 0.634765642152317 
2211	 0.634816664352091 
2212	 0.634826124648536 
2213	 0.634781957370095 
2214	 0.634754590618176 
2215	 0.634669770245515 
2216	 0.634663495629849 
2217	 0.634723830882754 
2218	 0.634748334798979 
2219	 0.634820113386812 
2220	 0.634850863395315 
2221	 0.634855987437692 
2222	 0.634819551400857 
2223	 0.634771263667123 
2224	 0.634686871468627 
2225	 0.63457852576807 
2226	 0.634405043928029 
2227	 0.63416700886045 
2228	 0.633898547615562 
2229	 0.633532955371362 
2230	 0.633079431165271 
2231	 0.632551839685222 
2232	 0.631958471014724 
2233	 0.631270015291673 
2234	 0.630520714789671 
2235	 0.629621895871293 
2236	 0.628636514979647 
2237	 0.627494106319553 
2238	 0.626139061244222 
2239	 0.62477836151526 
2240	 0.623335816760603 
2241	 0.621780491262443 
2242	 0.620227455647503 
2243	 0.618450750557681 
2244	 0.616471320149072 
2245	 0.614427597641231 
2246	 0.612151760486318 
2247	 0.609903784754929 
2248	 0.607638181704783 
2249	 0.605278389012078 
2250	 0.602849437486053 
2251	 0.600451197703758 
2252	 0.597769043706481 
2253	 0.595070124986766 
2254	 0.592236620773913 
2255	 0.589293786624173 
2256	 0.586589905121757 
2257	 0.583813152909366 
2258	 0.581155245959786 
2259	 0.578652179578422 
2260	 0.576046804268954 
2261	 0.573407868662121 
2262	 0.570875900127031 
2263	 0.568292049853408 
2264	 0.5658985825609 
2265	 0.563650665292556 
2266	 0.56141585228846 
2267	 0.559340434123722 
2268	 0.557182932139111 
2269	 0.555017483914252 
2270	 0.552901260495035 
2271	 0.550712240016321 
2272	 0.548681088415356 
2273	 0.546792566496339 
2274	 0.544874504074731 
2275	 0.543114793445434 
2276	 0.541201012000981 
2277	 0.539171177929176 
2278	 0.537202273943795 
2279	 0.535117951391075 
2280	 0.533163419230324 
2281	 0.531313972493998 
2282	 0.529464719223471 
2283	 0.527656872001388 
2284	 0.525918247771549 
2285	 0.524064050885395 
2286	 0.522331340144714 
2287	 0.520651671983127 
2288	 0.519015537420181 
2289	 0.517618135780944 
2290	 0.516288809350633 
2291	 0.515002467071468 
2292	 0.513749788298469 
2293	 0.512294780699434 
2294	 0.510759383367526 
2295	 0.509082456490531 
2296	 0.507240538778976 
2297	 0.505432771960368 
2298	 0.503602749995479 
2299	 0.501629123604527 
2300	 0.49960165782896 
2301	 0.49745420695885 
2302	 0.495044803146103 
2303	 0.492923905755395 
2304	 0.490673101491952 
2305	 0.488865956238897 
2306	 0.487227660890636 
2307	 0.486005963861729 
2308	 0.485006791806163 
2309	 0.484643204245447 
2310	 0.484668178967635 
2311	 0.485367497560445 
2312	 0.486852839276915 
2313	 0.488555876051583 
2314	 0.490944623641263 
2315	 0.493359519076141 
2316	 0.496192637565907 
2317	 0.498869232230067 
2318	 0.501880595409484 
2319	 0.504405149066279 
2320	 0.506894235683371 
2321	 0.508876033071402 
2322	 0.510449213317858 
2323	 0.511753554135644 
2324	 0.512592063848954 
2325	 0.513289489947133 
2326	 0.513688516984475 
2327	 0.513935330257767 
2328	 0.513922449665424 
2329	 0.513816388034112 
2330	 0.513560177529137 
2331	 0.513114391758242 
2332	 0.512538630816572 
2333	 0.511835631520437 
2334	 0.510856409387873 
2335	 0.509693876585218 
2336	 0.50822079011526 
2337	 0.506443989880158 
2338	 0.504553108469523 
2339	 0.502352834841076 
2340	 0.500094114350878 
2341	 0.497701562356523 
2342	 0.494998774490602 
2343	 0.492376920931536 
2344	 0.489853300023685 
2345	 0.487448565705197 
2346	 0.485508320521521 
2347	 0.483946425760168 
2348	 0.482705001334889 
2349	 0.482093159920355 
2350	 0.482009380067998 
2351	 0.482398689088371 
2352	 0.483291812492387 
2353	 0.484646612185973 
2354	 0.486233649049122 
2355	 0.488092077725265 
2356	 0.490050749944482 
2357	 0.49206844994995 
2358	 0.494239940319451 
2359	 0.496276622236013 
2360	 0.498367088184779 
2361	 0.500339216190293 
2362	 0.501976689640671 
2363	 0.503505221837246 
2364	 0.504801389023195 
2365	 0.505954549399353 
2366	 0.507088990704493 
2367	 0.508077845868068 
2368	 0.509005972937184 
2369	 0.509753614751231 
2370	 0.510256439969207 
2371	 0.51066898106819 
2372	 0.511010353949986 
2373	 0.511319397487714 
2374	 0.511618630914917 
2375	 0.511855806406086 
2376	 0.511988520274256 
2377	 0.512106437302057 
2378	 0.512259512319279 
2379	 0.512349581341758 
2380	 0.512391374198838 
2381	 0.512356969962062 
2382	 0.51235055054373 
2383	 0.512281961479076 
2384	 0.512260002438056 
2385	 0.512318870024421 
2386	 0.512297807987148 
2387	 0.512173853123794 
2388	 0.512178168602292 
2389	 0.512190405814179 
2390	 0.512251780477598 
2391	 0.512474625059597 
2392	 0.512540431981872 
2393	 0.512553085268325 
2394	 0.512540190980946 
2395	 0.512448400745651 
2396	 0.512428203132354 
2397	 0.51242168326633 
2398	 0.512395438325979 
2399	 0.512358299418478 
2400	 0.512282708294886 
2401	 0.512166424446677 
2402	 0.512130362853125 
2403	 0.512141258968924 
2404	 0.512242316581308 
2405	 0.512320351719361 
2406	 0.5123881885148 
2407	 0.51249227553147 
2408	 0.512636196161056 
2409	 0.512678273214134 
2410	 0.512674479484226 
2411	 0.51279975515851 
2412	 0.512820966153921 
2413	 0.512793225185943 
2414	 0.51272223473765 
2415	 0.512461930906553 
2416	 0.51231921947681 
2417	 0.512319907027281 
2418	 0.512277714534245 
2419	 0.512248820677519 
2420	 0.512199399089881 
2421	 0.512090412687237 
2422	 0.51208372760464 
2423	 0.512151296459769 
2424	 0.512029696137507 
2425	 0.511826624344031 
2426	 0.511723559887668 
2427	 0.511575230663623 
2428	 0.511444128912816 
2429	 0.51131504198745 
2430	 0.511021588716269 
2431	 0.510669085861928 
2432	 0.510381141678138 
2433	 0.51012919711211 
2434	 0.509745299345363 
2435	 0.509359916904124 
2436	 0.509068568726805 
2437	 0.508708485879494 
2438	 0.508321800106919 
2439	 0.507998738214734 
2440	 0.507584460087069 
2441	 0.506922484799518 
2442	 0.506356501106311 
2443	 0.505821877842566 
2444	 0.505133403424603 
2445	 0.504617657132891 
2446	 0.504054553791618 
2447	 0.503353021612066 
2448	 0.502733190095676 
2449	 0.501985654760393 
2450	 0.501109202831539 
2451	 0.500318085659394 
2452	 0.499643424315794 
2453	 0.49888187402692 
2454	 0.497966563472319 
2455	 0.497038317093804 
2456	 0.495987371062698 
2457	 0.494926965247208 
2458	 0.494214782643926 
2459	 0.493552640619213 
2460	 0.492831104732075 
2461	 0.492221790645757 
2462	 0.491539452383808 
2463	 0.490930189377537 
2464	 0.490307405578561 
2465	 0.489620876679637 
2466	 0.489102436351732 
2467	 0.488637779543117 
2468	 0.488169787279075 
2469	 0.48772192268632 
2470	 0.487445625065015 
2471	 0.487283716410645 
2472	 0.487031644253503 
2473	 0.486807607111702 
2474	 0.486377492079113 
2475	 0.485797285314064 
2476	 0.485305084584992 
2477	 0.484921456902868 
2478	 0.484668661102499 
2479	 0.484320171041464 
2480	 0.484460560874747 
2481	 0.484174827795564 
2482	 0.483527690677928 
2483	 0.48319081592972 
2484	 0.482641369224369 
2485	 0.482001866084376 
2486	 0.481941993368962 
2487	 0.481738356121453 
2488	 0.481599390729101 
2489	 0.482013495145508 
2490	 0.482006248374472 
2491	 0.481577300899414 
2492	 0.481021209779545 
2493	 0.480358660777673 
2494	 0.480071184838155 
2495	 0.480005885709786 
2496	 0.479927159977377 
2497	 0.479577654641675 
2498	 0.479208108327951 
2499	 0.479462485150885 
2500	 0.47957498009896 
