Wavelength	ProbetaAcolman00017.asd
350	 0.704964644294679 
351	 0.702590041159978 
352	 0.691779239056949 
353	 0.677789102404114 
354	 0.693698332239427 
355	 0.692677163270022 
356	 0.679234273421788 
357	 0.670198139065331 
358	 0.686041306944735 
359	 0.677256397619537 
360	 0.654684704197645 
361	 0.654691162793183 
362	 0.643403803576388 
363	 0.634909738364454 
364	 0.635647050713033 
365	 0.635397893117693 
366	 0.632735700521167 
367	 0.631067986809061 
368	 0.633513868904988 
369	 0.639260878233536 
370	 0.638252501365641 
371	 0.631224029688465 
372	 0.62580939995047 
373	 0.628821376744745 
374	 0.626544821028377 
375	 0.617248128387108 
376	 0.618238212369582 
377	 0.618391255159018 
378	 0.618303911132428 
379	 0.620350812162401 
380	 0.623699176194675 
381	 0.624844485749652 
382	 0.622205804553123 
383	 0.616269839905738 
384	 0.611099931033447 
385	 0.614479539563418 
386	 0.623782696212532 
387	 0.621599175143203 
388	 0.622603615649969 
389	 0.621344021988133 
390	 0.613819242618535 
391	 0.619784996983863 
392	 0.619161435559691 
393	 0.613362790868259 
394	 0.616092654860201 
395	 0.615618403190889 
396	 0.61623806551007 
397	 0.620310304395409 
398	 0.624446487911282 
399	 0.624495219562239 
400	 0.623624148708169 
401	 0.625324213815042 
402	 0.624921509068068 
403	 0.628302205046554 
404	 0.633791012933674 
405	 0.6348287977 
406	 0.637486073333268 
407	 0.641437308600485 
408	 0.645496356696127 
409	 0.648450089186858 
410	 0.652420188008423 
411	 0.657026438272996 
412	 0.661180217728589 
413	 0.664262532190516 
414	 0.668441932676856 
415	 0.673935678854806 
416	 0.679150808053209 
417	 0.683720695934064 
418	 0.686610485007887 
419	 0.688356270344559 
420	 0.69340661673272 
421	 0.696582822681352 
422	 0.698590294425381 
423	 0.701822799524989 
424	 0.70366372446775 
425	 0.706371852515127 
426	 0.709830372009646 
427	 0.711090959528107 
428	 0.713061893653844 
429	 0.715319624464047 
430	 0.716948627224914 
431	 0.717550938534891 
432	 0.718806406396941 
433	 0.720724906078377 
434	 0.722359276230191 
435	 0.723141343139338 
436	 0.723806698100028 
437	 0.724795642761292 
438	 0.725949970438615 
439	 0.726142822189776 
440	 0.726078815038645 
441	 0.726627715257364 
442	 0.727105334190389 
443	 0.7272837800723 
444	 0.727075893482134 
445	 0.726520737745906 
446	 0.725800702311614 
447	 0.725350206354243 
448	 0.725312780516545 
449	 0.725232141071371 
450	 0.724891323540479 
451	 0.724534141729367 
452	 0.724396044042525 
453	 0.723434875029022 
454	 0.72271726635171 
455	 0.722292757212516 
456	 0.721018826093224 
457	 0.719729209367977 
458	 0.718648635386212 
459	 0.717694880574138 
460	 0.716278139243706 
461	 0.715033136567788 
462	 0.714028995364648 
463	 0.713006229450972 
464	 0.711876286004546 
465	 0.710449363529655 
466	 0.708772731686708 
467	 0.707258239823354 
468	 0.705552800117591 
469	 0.703824466332481 
470	 0.702302978231261 
471	 0.700916379877883 
472	 0.699218306912261 
473	 0.697155024544389 
474	 0.695028400797736 
475	 0.693566473475304 
476	 0.692264709759805 
477	 0.690653712886917 
478	 0.688737022729636 
479	 0.686997234442178 
480	 0.685339547927655 
481	 0.683502593195488 
482	 0.681712141145617 
483	 0.680073073414428 
484	 0.678535520156854 
485	 0.676896736777962 
486	 0.675615425729396 
487	 0.674355273185683 
488	 0.672838292505353 
489	 0.671484111340068 
490	 0.670255683302539 
491	 0.66919438193075 
492	 0.668346882222206 
493	 0.667376990995752 
494	 0.666651751987542 
495	 0.666197654770202 
496	 0.665337935606438 
497	 0.66491689427717 
498	 0.664697207361894 
499	 0.664277638898692 
500	 0.664125024010472 
501	 0.663795438641089 
502	 0.66335548415857 
503	 0.663288735092584 
504	 0.662887048772745 
505	 0.662250626969028 
506	 0.661642415235236 
507	 0.66139068060994 
508	 0.660848031090568 
509	 0.660216952707531 
510	 0.659962134185384 
511	 0.659562500063709 
512	 0.659066071857272 
513	 0.658622822349211 
514	 0.65844964735636 
515	 0.65790560369524 
516	 0.657246419279781 
517	 0.656761482143843 
518	 0.655994189322735 
519	 0.65531786470379 
520	 0.654636879506152 
521	 0.653588986961692 
522	 0.652732470459667 
523	 0.651845927335548 
524	 0.650805356267415 
525	 0.649898889087224 
526	 0.648907066932051 
527	 0.647823468017905 
528	 0.646747289511722 
529	 0.645912312154402 
530	 0.645107042848998 
531	 0.644304343531063 
532	 0.643694595770271 
533	 0.643035487773829 
534	 0.642399666769792 
535	 0.641878829811965 
536	 0.641396098600275 
537	 0.641111682504881 
538	 0.641027633807793 
539	 0.641049079059687 
540	 0.641073972264569 
541	 0.64134314304984 
542	 0.641899364922946 
543	 0.642411231357154 
544	 0.643052720484027 
545	 0.643909674830147 
546	 0.645021877432267 
547	 0.646361774776022 
548	 0.647723406700382 
549	 0.649122066107573 
550	 0.650768261310399 
551	 0.652668833377172 
552	 0.654652950656205 
553	 0.656571971781769 
554	 0.658441807767591 
555	 0.660102421913102 
556	 0.661573391568847 
557	 0.662932858822366 
558	 0.663990156686227 
559	 0.66481048104924 
560	 0.66542441460963 
561	 0.665782785427091 
562	 0.665876422880451 
563	 0.665880833686028 
564	 0.665905622900041 
565	 0.665656034741964 
566	 0.665161986291181 
567	 0.664432754410707 
568	 0.663464866323614 
569	 0.662300804876606 
570	 0.660927668139829 
571	 0.659338750945435 
572	 0.657568765008305 
573	 0.655657260221825 
574	 0.653514392166475 
575	 0.651051155871519 
576	 0.648535018909372 
577	 0.64584268052877 
578	 0.642978764609982 
579	 0.640117476304107 
580	 0.637250241436312 
581	 0.634277863994292 
582	 0.631196808590129 
583	 0.628379772543639 
584	 0.625629587699444 
585	 0.622872847201963 
586	 0.620165980130288 
587	 0.618019963330192 
588	 0.616118165381483 
589	 0.614368157936009 
590	 0.613217219441531 
591	 0.612247462746222 
592	 0.611494935786718 
593	 0.611104030784046 
594	 0.611077946359078 
595	 0.61118637228741 
596	 0.611386269411461 
597	 0.611800608091074 
598	 0.612392200387553 
599	 0.612888460536373 
600	 0.613244171010651 
601	 0.6140754823267 
602	 0.614804418517387 
603	 0.615281193578852 
604	 0.615613957020527 
605	 0.616265793153591 
606	 0.61693733903285 
607	 0.617439358970307 
608	 0.617802384886777 
609	 0.618314227665196 
610	 0.618857872352801 
611	 0.619273884971096 
612	 0.619601625826704 
613	 0.620127567148623 
614	 0.620727532482006 
615	 0.621042943082944 
616	 0.621255138249325 
617	 0.621625845925961 
618	 0.622125240702073 
619	 0.622186691481906 
620	 0.622217881260767 
621	 0.622349771133977 
622	 0.62254748005042 
623	 0.622453303333784 
624	 0.622217591379404 
625	 0.621991390754493 
626	 0.621879243020105 
627	 0.621510896582254 
628	 0.620974857487976 
629	 0.6204434466515 
630	 0.620093729138961 
631	 0.619539097453487 
632	 0.618780579263097 
633	 0.618027329866067 
634	 0.617537861753896 
635	 0.617036901620817 
636	 0.616421472326312 
637	 0.615861992111442 
638	 0.61553647812992 
639	 0.615271822380542 
640	 0.6149167476788 
641	 0.614695305131808 
642	 0.614592862591095 
643	 0.614643546328498 
644	 0.614886922068593 
645	 0.61516174367657 
646	 0.615521770061615 
647	 0.61604260866284 
648	 0.616797391179824 
649	 0.617550646385393 
650	 0.618382689914223 
651	 0.619451992618502 
652	 0.620795703623975 
653	 0.622237415611479 
654	 0.623745627952913 
655	 0.625413106797121 
656	 0.627262623674385 
657	 0.629310189339173 
658	 0.631557512618671 
659	 0.633997415262704 
660	 0.636498315790818 
661	 0.639121751472228 
662	 0.641981667559514 
663	 0.645017552332233 
664	 0.64825562243332 
665	 0.65172141976251 
666	 0.65543001098289 
667	 0.659205035664475 
668	 0.663107738219447 
669	 0.667212351824094 
670	 0.67151629462743 
671	 0.675969730154481 
672	 0.680555956452525 
673	 0.685293262547013 
674	 0.69029395183978 
675	 0.695367834054126 
676	 0.70049397018639 
677	 0.705885542586993 
678	 0.711329266022448 
679	 0.71682890492186 
680	 0.722423221568348 
681	 0.728088268342331 
682	 0.733878034902213 
683	 0.739753356219252 
684	 0.74563065465822 
685	 0.751494995066499 
686	 0.757271639532938 
687	 0.76296790302748 
688	 0.768716334852025 
689	 0.774391499680095 
690	 0.779937563897996 
691	 0.785363698689241 
692	 0.790823093698773 
693	 0.7960475321637 
694	 0.801052700831848 
695	 0.806019691008407 
696	 0.810816266630988 
697	 0.815420936297574 
698	 0.819813203185009 
699	 0.823946341517574 
700	 0.828015011360326 
701	 0.83193640823332 
702	 0.835584167856962 
703	 0.838992351948371 
704	 0.84229393682018 
705	 0.84548603179524 
706	 0.848459760621617 
707	 0.85104958403987 
708	 0.853564687508289 
709	 0.85612352243617 
710	 0.858418990384284 
711	 0.860556051086716 
712	 0.862603249753781 
713	 0.864563166451042 
714	 0.866191899934965 
715	 0.867772096623041 
716	 0.869373098336901 
717	 0.870888674968713 
718	 0.872212954403636 
719	 0.873443118139754 
720	 0.874640469673254 
721	 0.875757288740614 
722	 0.876762039654457 
723	 0.877631624994945 
724	 0.878388366883483 
725	 0.879191290608441 
726	 0.880050873579347 
727	 0.880909561898276 
728	 0.881664137957965 
729	 0.882262754922467 
730	 0.882806278281297 
731	 0.883380234655452 
732	 0.884013541566519 
733	 0.884519950193256 
734	 0.884961739131208 
735	 0.885434163491997 
736	 0.885850425741899 
737	 0.88625424246243 
738	 0.886629300881805 
739	 0.886927329641537 
740	 0.887214876186238 
741	 0.887434380990952 
742	 0.88761689640574 
743	 0.887942985397934 
744	 0.888345142750066 
745	 0.888583286422555 
746	 0.888572071025946 
747	 0.88888762490833 
748	 0.889174278779422 
749	 0.88945523078511 
750	 0.889908435522542 
751	 0.890097671624909 
752	 0.890165240340274 
753	 0.890255997763958 
754	 0.890430849527807 
755	 0.890647708808476 
756	 0.890873230930932 
757	 0.89107698536406 
758	 0.891233171279862 
759	 0.891334858500494 
760	 0.891510518878803 
761	 0.891885499809456 
762	 0.892169878752141 
763	 0.892308881352932 
764	 0.892381482800991 
765	 0.89257581536661 
766	 0.892776735417785 
767	 0.892976132539078 
768	 0.893197163088655 
769	 0.893501859586222 
770	 0.893730931797702 
771	 0.893912103949338 
772	 0.894133789847649 
773	 0.89440479449753 
774	 0.894610700446751 
775	 0.89476673416122 
776	 0.894988857486398 
777	 0.895207403076023 
778	 0.895408683084359 
779	 0.895606793404598 
780	 0.89584700985209 
781	 0.896135732814809 
782	 0.896412015937251 
783	 0.896612453086541 
784	 0.896718859102012 
785	 0.896943945879066 
786	 0.897280809124474 
787	 0.897594390692639 
788	 0.897878622539853 
789	 0.898157682815504 
790	 0.898451987875294 
791	 0.898769531928213 
792	 0.899062404296138 
793	 0.899340740250039 
794	 0.899612437893911 
795	 0.899836111748798 
796	 0.900160018753694 
797	 0.900474118839274 
798	 0.900668914870117 
799	 0.901142652380082 
800	 0.901572297777991 
801	 0.901878759994797 
802	 0.902199091092042 
803	 0.902557350480157 
804	 0.902958187912846 
805	 0.903393813870739 
806	 0.903848687874385 
807	 0.904138136744927 
808	 0.904412255091142 
809	 0.904842084816704 
810	 0.905409051564148 
811	 0.905862541490823 
812	 0.906248713366334 
813	 0.906727809946977 
814	 0.907231736232507 
815	 0.90765713213781 
816	 0.908041476732194 
817	 0.908531749146341 
818	 0.908989488487473 
819	 0.909428821796349 
820	 0.909852705851221 
821	 0.910207938494261 
822	 0.91058654776854 
823	 0.911013585039086 
824	 0.911479155368581 
825	 0.911937017916163 
826	 0.912390898195958 
827	 0.912804057777156 
828	 0.913160192299769 
829	 0.913648664008212 
830	 0.914142631235156 
831	 0.914594501817864 
832	 0.915043136072264 
833	 0.915462836790331 
834	 0.915915639080517 
835	 0.916400501151058 
836	 0.916806591673343 
837	 0.917155127865358 
838	 0.917523571150111 
839	 0.917951114277169 
840	 0.918333826644929 
841	 0.918662606322063 
842	 0.91898804151236 
843	 0.919369412138573 
844	 0.919745844091263 
845	 0.920271748658317 
846	 0.920838313775212 
847	 0.921185865450029 
848	 0.921556138857744 
849	 0.921998769810311 
850	 0.922438773494481 
851	 0.922695787353537 
852	 0.923167272281855 
853	 0.923630762121755 
854	 0.923931455113813 
855	 0.92433615498618 
856	 0.924750515684927 
857	 0.925189051115565 
858	 0.925677728921299 
859	 0.926198591948266 
860	 0.926582212735818 
861	 0.926902524051619 
862	 0.927336834412112 
863	 0.927832821168105 
864	 0.928327678811035 
865	 0.928747803977188 
866	 0.929032217430578 
867	 0.929251348212707 
868	 0.929575258107504 
869	 0.930017440651191 
870	 0.93036709960077 
871	 0.930517312165898 
872	 0.93077662371867 
873	 0.931296197646286 
874	 0.931684383829564 
875	 0.932025497380537 
876	 0.932300462598801 
877	 0.932528382473168 
878	 0.932920091296794 
879	 0.933421819766853 
880	 0.933859889987998 
881	 0.934066159389008 
882	 0.934201127209876 
883	 0.934458098905736 
884	 0.934785979979498 
885	 0.934982943290307 
886	 0.935277796224192 
887	 0.935591608307341 
888	 0.935852422697635 
889	 0.936043634107872 
890	 0.936197592438127 
891	 0.936513814423599 
892	 0.936975454660736 
893	 0.937171531443494 
894	 0.937383723073893 
895	 0.937642811293688 
896	 0.937890559326087 
897	 0.937998679948922 
898	 0.938142437390948 
899	 0.938332194731636 
900	 0.938546846455392 
901	 0.938883314826307 
902	 0.939222765790194 
903	 0.939571893065568 
904	 0.939958392594422 
905	 0.940152988346065 
906	 0.940374878274196 
907	 0.940672804541824 
908	 0.940941068469387 
909	 0.941051458628548 
910	 0.941249863614193 
911	 0.941635494721842 
912	 0.942101883038952 
913	 0.942474058579672 
914	 0.942772834968675 
915	 0.943024166553712 
916	 0.943216766116527 
917	 0.943467705198712 
918	 0.943750379769872 
919	 0.944027640899757 
920	 0.944305031384311 
921	 0.944605786656214 
922	 0.944873166043339 
923	 0.945112791415886 
924	 0.945549722203291 
925	 0.945835158385866 
926	 0.94600816126776 
927	 0.946185670435981 
928	 0.946243483917061 
929	 0.946546066292596 
930	 0.946969267359791 
931	 0.947229197955499 
932	 0.947339860238257 
933	 0.947671467901716 
934	 0.948131474975206 
935	 0.948408241592903 
936	 0.948556938648112 
937	 0.948791169959262 
938	 0.949077455665063 
939	 0.949246696986296 
940	 0.949516736053552 
941	 0.949822720220818 
942	 0.95007731093867 
943	 0.950231445718564 
944	 0.950521805949341 
945	 0.950776142095103 
946	 0.950903143574468 
947	 0.950969111502184 
948	 0.951184486213825 
949	 0.95145177158477 
950	 0.951611719318726 
951	 0.951534566144167 
952	 0.951662757157804 
953	 0.951741429382015 
954	 0.951705878177985 
955	 0.951931321752134 
956	 0.952142756017418 
957	 0.952144271058909 
958	 0.951949421251034 
959	 0.951878477850699 
960	 0.951753955720021 
961	 0.951737028670368 
962	 0.951884143996834 
963	 0.951909914190178 
964	 0.952104167662296 
965	 0.952393036261121 
966	 0.952669051005434 
967	 0.952978820743458 
968	 0.953179019383176 
969	 0.953405965249144 
970	 0.953799216012364 
971	 0.954307793957449 
972	 0.954633354297045 
973	 0.954736989511381 
974	 0.954756046111547 
975	 0.955010546162655 
976	 0.955385108142837 
977	 0.955627527569247 
978	 0.955604578219479 
979	 0.955655069849427 
980	 0.955840819726846 
981	 0.956017687384949 
982	 0.956107623822628 
983	 0.956536542767052 
984	 0.95663117391057 
985	 0.956713929239923 
986	 0.957176060268211 
987	 0.957412849165324 
988	 0.957528470241404 
989	 0.957554793202289 
990	 0.957554460591931 
991	 0.957725430013688 
992	 0.957882511145091 
993	 0.958034472129341 
994	 0.958189247344229 
995	 0.958101637968475 
996	 0.957987846982858 
997	 0.958116598586598 
998	 0.95852567707157 
999	 0.958485687951229 
1000	 0.958702399509512 
1001	 0.95055388302307 
1002	 0.950552220530955 
1003	 0.950598891468135 
1004	 0.950637673629644 
1005	 0.950692534453137 
1006	 0.950735058532438 
1007	 0.950815832947762 
1008	 0.950832288783103 
1009	 0.950813301334031 
1010	 0.950812499042081 
1011	 0.950777999139006 
1012	 0.950745796656254 
1013	 0.950739027454391 
1014	 0.950713589242723 
1015	 0.950697146628063 
1016	 0.950603687313222 
1017	 0.950535760780248 
1018	 0.950491065628033 
1019	 0.9503612673579 
1020	 0.950286010331571 
1021	 0.950265787504604 
1022	 0.950278666020093 
1023	 0.950280048520842 
1024	 0.950365569878942 
1025	 0.950382919498169 
1026	 0.95032091375445 
1027	 0.950319599813006 
1028	 0.950330181378327 
1029	 0.950365034494389 
1030	 0.950417181372439 
1031	 0.950424858358304 
1032	 0.950392086110315 
1033	 0.950349892755757 
1034	 0.950381652054579 
1035	 0.950462435730042 
1036	 0.950449751241213 
1037	 0.950441822476489 
1038	 0.950405553603548 
1039	 0.950278426577489 
1040	 0.950187774354508 
1041	 0.950124389153836 
1042	 0.950046241130733 
1043	 0.949961666457265 
1044	 0.949829340396791 
1045	 0.949724775071805 
1046	 0.949640921222373 
1047	 0.949474558393162 
1048	 0.949273146427878 
1049	 0.949067721295425 
1050	 0.948864684743309 
1051	 0.948715319751576 
1052	 0.948539486124134 
1053	 0.948335592548043 
1054	 0.948145591157827 
1055	 0.947903329250683 
1056	 0.947569619998642 
1057	 0.947314728488328 
1058	 0.94710420974077 
1059	 0.94680397648124 
1060	 0.946526502067841 
1061	 0.946334368716077 
1062	 0.946032920456652 
1063	 0.945730354817945 
1064	 0.945507629778395 
1065	 0.945170560788848 
1066	 0.944832978396498 
1067	 0.944529218668188 
1068	 0.944143132811312 
1069	 0.943727622429198 
1070	 0.943313035454739 
1071	 0.942877570330236 
1072	 0.942453095801128 
1073	 0.94206161989448 
1074	 0.941685724585489 
1075	 0.941373858657034 
1076	 0.941030474203391 
1077	 0.940613647129914 
1078	 0.940223580693784 
1079	 0.939780454255138 
1080	 0.939311067058408 
1081	 0.938912145403305 
1082	 0.938495971080159 
1083	 0.938051982511677 
1084	 0.937601207818125 
1085	 0.937126403527687 
1086	 0.936674359169517 
1087	 0.936221174735811 
1088	 0.935776045474347 
1089	 0.935364657240495 
1090	 0.934955561324977 
1091	 0.934458505733392 
1092	 0.933959321084191 
1093	 0.933462002346468 
1094	 0.932934969573653 
1095	 0.932449357989939 
1096	 0.931933644725819 
1097	 0.9313893558671 
1098	 0.930871440289708 
1099	 0.930301970794057 
1100	 0.929770405786314 
1101	 0.929300111880426 
1102	 0.92876768128785 
1103	 0.92822567172141 
1104	 0.92769430533442 
1105	 0.927139313431658 
1106	 0.926518847503054 
1107	 0.92594023939015 
1108	 0.925361720212505 
1109	 0.924813078035802 
1110	 0.924245538241145 
1111	 0.923586477371722 
1112	 0.922978977539218 
1113	 0.922350021670629 
1114	 0.921732235929429 
1115	 0.921205788028819 
1116	 0.92061578636938 
1117	 0.920027608961116 
1118	 0.919455352854474 
1119	 0.918892016126494 
1120	 0.918281429842632 
1121	 0.917678898097638 
1122	 0.917052240692991 
1123	 0.91632304300201 
1124	 0.915649577631851 
1125	 0.914980705477257 
1126	 0.914275053590778 
1127	 0.913578696253572 
1128	 0.912807285879046 
1129	 0.912061646537604 
1130	 0.911328496228538 
1131	 0.910551667128903 
1132	 0.909841506032871 
1133	 0.909089048654792 
1134	 0.908275393369777 
1135	 0.907434458714911 
1136	 0.906541230990528 
1137	 0.905669407842998 
1138	 0.904771531183493 
1139	 0.903868576488987 
1140	 0.902958762813067 
1141	 0.90211947168264 
1142	 0.901186691531021 
1143	 0.900253830273865 
1144	 0.899361201835309 
1145	 0.89835661854659 
1146	 0.897377760014437 
1147	 0.896406011343113 
1148	 0.895362106733511 
1149	 0.894370104578466 
1150	 0.893382050450092 
1151	 0.892393563795872 
1152	 0.891366989549314 
1153	 0.890324692178035 
1154	 0.88927935623926 
1155	 0.888196228861385 
1156	 0.88710240424104 
1157	 0.886028390965804 
1158	 0.884952558404593 
1159	 0.883833957456727 
1160	 0.882757270375743 
1161	 0.881695646373952 
1162	 0.880520815111134 
1163	 0.879404731407625 
1164	 0.878240608365891 
1165	 0.877059825104692 
1166	 0.876014179991116 
1167	 0.874911912511203 
1168	 0.873833475825624 
1169	 0.87275862337818 
1170	 0.871679520292352 
1171	 0.870613783708336 
1172	 0.869562278780336 
1173	 0.868513430024844 
1174	 0.867458038892334 
1175	 0.866476015051357 
1176	 0.865537474865999 
1177	 0.864588662776635 
1178	 0.86369033832445 
1179	 0.86276455389873 
1180	 0.86186912222814 
1181	 0.860929030573115 
1182	 0.85999824042675 
1183	 0.859124971514649 
1184	 0.858169068880629 
1185	 0.857263327341422 
1186	 0.856356545853185 
1187	 0.855450020739529 
1188	 0.854556741948825 
1189	 0.85365177953043 
1190	 0.852794394558352 
1191	 0.85196008373114 
1192	 0.851177760027151 
1193	 0.850465334503734 
1194	 0.84973576017711 
1195	 0.849015509072952 
1196	 0.848301160038829 
1197	 0.847596342776206 
1198	 0.846887824267673 
1199	 0.846162728048909 
1200	 0.84553550421879 
1201	 0.844905438899162 
1202	 0.844248760444202 
1203	 0.843624640204767 
1204	 0.843012568088392 
1205	 0.842425306985257 
1206	 0.84184984470362 
1207	 0.841283476442386 
1208	 0.840740391134913 
1209	 0.840212826440437 
1210	 0.839666868620017 
1211	 0.839180744965088 
1212	 0.838711901341609 
1213	 0.838311955217906 
1214	 0.837972311598052 
1215	 0.837654321126865 
1216	 0.837386563252902 
1217	 0.837156390230662 
1218	 0.836951434992901 
1219	 0.836782176458743 
1220	 0.836673973378751 
1221	 0.836570473776147 
1222	 0.836482979955718 
1223	 0.836409581553774 
1224	 0.836336865255692 
1225	 0.836284173849812 
1226	 0.836212602747417 
1227	 0.836141594473862 
1228	 0.836055142930855 
1229	 0.835954138482673 
1230	 0.835857428059272 
1231	 0.835779319199453 
1232	 0.835649990438763 
1233	 0.835506782618379 
1234	 0.835332717836393 
1235	 0.83510331136611 
1236	 0.83488071770542 
1237	 0.834636314186605 
1238	 0.834401596475995 
1239	 0.83417590870627 
1240	 0.833926420105498 
1241	 0.833669279987622 
1242	 0.833411372635533 
1243	 0.833133227927644 
1244	 0.832818389250885 
1245	 0.832544906029792 
1246	 0.832278466839285 
1247	 0.832012013289715 
1248	 0.831761684023333 
1249	 0.831506317847273 
1250	 0.831240639855668 
1251	 0.830993782508674 
1252	 0.830779767494057 
1253	 0.830525423146073 
1254	 0.830251666579948 
1255	 0.829986577149081 
1256	 0.829709732667079 
1257	 0.829423301603838 
1258	 0.829152794415668 
1259	 0.828857116716033 
1260	 0.828518812191563 
1261	 0.828198220875469 
1262	 0.827878660854609 
1263	 0.827553744248674 
1264	 0.827234898604976 
1265	 0.826924449502657 
1266	 0.826604357871776 
1267	 0.826287963421875 
1268	 0.825951806011324 
1269	 0.825604466095785 
1270	 0.825257607189891 
1271	 0.824890299047329 
1272	 0.824541174852946 
1273	 0.824212435567807 
1274	 0.823858009458486 
1275	 0.823483304314208 
1276	 0.823135200844856 
1277	 0.822785532092545 
1278	 0.822442329189488 
1279	 0.822134736609397 
1280	 0.821802506158753 
1281	 0.821438912694945 
1282	 0.821102450091984 
1283	 0.820755596397432 
1284	 0.820443797055027 
1285	 0.82015626931848 
1286	 0.819898947029601 
1287	 0.819641097101349 
1288	 0.819410435100337 
1289	 0.819166224504153 
1290	 0.818930180309084 
1291	 0.818678293270366 
1292	 0.818414355826109 
1293	 0.818169301289899 
1294	 0.817928979082247 
1295	 0.817678843032671 
1296	 0.817426424930928 
1297	 0.817194210901441 
1298	 0.816951063315227 
1299	 0.816732966599332 
1300	 0.816542985410876 
1301	 0.816361056034759 
1302	 0.816199084601401 
1303	 0.816025928367796 
1304	 0.815880958053568 
1305	 0.815704402332022 
1306	 0.815490483030049 
1307	 0.815293951260063 
1308	 0.81508236732843 
1309	 0.814885939197159 
1310	 0.814710235507887 
1311	 0.814558097207757 
1312	 0.81439354708956 
1313	 0.814236837279988 
1314	 0.814083555345537 
1315	 0.813928456482648 
1316	 0.813779157034074 
1317	 0.813636343469553 
1318	 0.813501788484644 
1319	 0.813362473710818 
1320	 0.813243980539053 
1321	 0.81314900007526 
1322	 0.813046000260571 
1323	 0.81295385041594 
1324	 0.812853631028315 
1325	 0.812750819104053 
1326	 0.812646583371691 
1327	 0.812522560106533 
1328	 0.812429177187688 
1329	 0.812365456304048 
1330	 0.812277232422551 
1331	 0.812195148041476 
1332	 0.8121106862739 
1333	 0.812000838031874 
1334	 0.811905666660982 
1335	 0.811804930082301 
1336	 0.811716856773888 
1337	 0.811611653857645 
1338	 0.811502016325795 
1339	 0.811369757274437 
1340	 0.811230315975382 
1341	 0.811073736541031 
1342	 0.810889494091145 
1343	 0.810714205936511 
1344	 0.810544519365371 
1345	 0.81034748524599 
1346	 0.810133354731818 
1347	 0.809918215965891 
1348	 0.809694574988124 
1349	 0.809454062918942 
1350	 0.809208939495315 
1351	 0.808947107955581 
1352	 0.808669462283011 
1353	 0.808370139810468 
1354	 0.808050461767923 
1355	 0.807730702804988 
1356	 0.807396498789127 
1357	 0.807048140936704 
1358	 0.806674460621187 
1359	 0.806322360496297 
1360	 0.805967542167022 
1361	 0.80560497810169 
1362	 0.805267174885594 
1363	 0.804974700522752 
1364	 0.804685061908059 
1365	 0.804404119176667 
1366	 0.804150943616739 
1367	 0.803936260338649 
1368	 0.80369289092683 
1369	 0.803477553770885 
1370	 0.803199280658179 
1371	 0.802892926156538 
1372	 0.802569449673421 
1373	 0.802223687506788 
1374	 0.801837711794869 
1375	 0.801456431144779 
1376	 0.800976515848581 
1377	 0.800413579136344 
1378	 0.799834853595863 
1379	 0.799177864136051 
1380	 0.798525475817625 
1381	 0.797856766135701 
1382	 0.797163079297177 
1383	 0.796443096733114 
1384	 0.79570454915686 
1385	 0.794976437482872 
1386	 0.794184249189681 
1387	 0.793378495402785 
1388	 0.792513932330364 
1389	 0.79160529473295 
1390	 0.790638841010144 
1391	 0.789639540417067 
1392	 0.788539439453601 
1393	 0.787471934969063 
1394	 0.786327276646951 
1395	 0.785165521856943 
1396	 0.783985306620467 
1397	 0.782784763152007 
1398	 0.781560649657191 
1399	 0.780263129909839 
1400	 0.778963828708349 
1401	 0.777541081054289 
1402	 0.776075062957303 
1403	 0.774418578535572 
1404	 0.772724108029789 
1405	 0.770758984758607 
1406	 0.768600907908594 
1407	 0.766264112869577 
1408	 0.76358313328408 
1409	 0.761047308524813 
1410	 0.758161936797848 
1411	 0.755810958248522 
1412	 0.753432897374168 
1413	 0.751733365957355 
1414	 0.750422316131547 
1415	 0.74959582209206 
1416	 0.749472601994592 
1417	 0.749397330600552 
1418	 0.749895920725383 
1419	 0.750178962042849 
1420	 0.750643875517583 
1421	 0.750880187068154 
1422	 0.751021297625875 
1423	 0.751021400201854 
1424	 0.750843746668355 
1425	 0.750586232213528 
1426	 0.750279022926069 
1427	 0.749869130298596 
1428	 0.749436816309389 
1429	 0.748994549863459 
1430	 0.748528510362985 
1431	 0.748006932738847 
1432	 0.747525809475919 
1433	 0.747044101387532 
1434	 0.746569873435838 
1435	 0.746097536499614 
1436	 0.745642423142271 
1437	 0.745194448429486 
1438	 0.744762281286823 
1439	 0.744355471655906 
1440	 0.74393272435754 
1441	 0.743509347299913 
1442	 0.743090449427334 
1443	 0.742656898062652 
1444	 0.742251835658708 
1445	 0.741854964653725 
1446	 0.74148730482604 
1447	 0.741147477705059 
1448	 0.740811097906019 
1449	 0.740497333488033 
1450	 0.740181779100319 
1451	 0.73988099703243 
1452	 0.739563863675993 
1453	 0.739236352925597 
1454	 0.738925063957394 
1455	 0.738602551600687 
1456	 0.738300919429866 
1457	 0.738031970217445 
1458	 0.737747644725006 
1459	 0.737468031044993 
1460	 0.737177577284929 
1461	 0.736865637536849 
1462	 0.736575468551134 
1463	 0.736284783641912 
1464	 0.736009468245188 
1465	 0.735761681465333 
1466	 0.735500176624465 
1467	 0.735258164574362 
1468	 0.735019695206691 
1469	 0.734815330974927 
1470	 0.734640560427202 
1471	 0.734474955716496 
1472	 0.734348986463491 
1473	 0.7341863678559 
1474	 0.734025809506347 
1475	 0.73384335646196 
1476	 0.733638661609266 
1477	 0.733442773753047 
1478	 0.733242196717638 
1479	 0.733039114499007 
1480	 0.732847512484779 
1481	 0.732616800258189 
1482	 0.732361301700531 
1483	 0.73210822186531 
1484	 0.731837784909951 
1485	 0.731559514142595 
1486	 0.731269305598601 
1487	 0.730994585156186 
1488	 0.730701221620188 
1489	 0.730435617425361 
1490	 0.730186150635153 
1491	 0.729957396620161 
1492	 0.729737449787552 
1493	 0.729541955858835 
1494	 0.729385845297501 
1495	 0.729221250661114 
1496	 0.729056532172414 
1497	 0.728917000233176 
1498	 0.728773237037476 
1499	 0.728673551417322 
1500	 0.728605796726719 
1501	 0.728563409697879 
1502	 0.728552709663207 
1503	 0.728567250576299 
1504	 0.728608376708362 
1505	 0.728673803658551 
1506	 0.728764858893211 
1507	 0.72888396997333 
1508	 0.729036324538383 
1509	 0.729204315501434 
1510	 0.729415351646636 
1511	 0.729613258713771 
1512	 0.729818412272158 
1513	 0.730026178641367 
1514	 0.730222370422925 
1515	 0.73043999613889 
1516	 0.730675927281507 
1517	 0.730912832439919 
1518	 0.731171880489955 
1519	 0.731418091558941 
1520	 0.731650074557962 
1521	 0.73189024766765 
1522	 0.732139448904638 
1523	 0.732420270056182 
1524	 0.732719309850434 
1525	 0.73305073469475 
1526	 0.733385923804884 
1527	 0.733734393961515 
1528	 0.734093117895798 
1529	 0.734463553409008 
1530	 0.734856478724114 
1531	 0.735261145358584 
1532	 0.735691525592643 
1533	 0.736159169175944 
1534	 0.736603485327979 
1535	 0.737047535658486 
1536	 0.737511533174244 
1537	 0.737970478648666 
1538	 0.738457920302461 
1539	 0.738984636195979 
1540	 0.739485987261888 
1541	 0.739987639713346 
1542	 0.740490369244244 
1543	 0.741004309874845 
1544	 0.741476938792267 
1545	 0.741938553762664 
1546	 0.742383519090625 
1547	 0.74279412105769 
1548	 0.743205361515013 
1549	 0.743615246625854 
1550	 0.744009721807634 
1551	 0.74439101932315 
1552	 0.7447503555745 
1553	 0.745095078506055 
1554	 0.745430713659903 
1555	 0.745730370177647 
1556	 0.746056090467631 
1557	 0.746386236318872 
1558	 0.746721611438996 
1559	 0.747078959629278 
1560	 0.747405591616473 
1561	 0.747705579031647 
1562	 0.748039133399463 
1563	 0.748352706118008 
1564	 0.748714434352458 
1565	 0.749130098632264 
1566	 0.749529523290949 
1567	 0.749941823762353 
1568	 0.750356870018064 
1569	 0.750762217885787 
1570	 0.751198426435172 
1571	 0.751663713881191 
1572	 0.752117492568337 
1573	 0.752576939983429 
1574	 0.753050412965885 
1575	 0.753532506537524 
1576	 0.754007237405144 
1577	 0.754495956624716 
1578	 0.754978972671715 
1579	 0.755437257822091 
1580	 0.755922024956962 
1581	 0.75642823806358 
1582	 0.756930220298532 
1583	 0.757437459245946 
1584	 0.757951455837689 
1585	 0.758472095249871 
1586	 0.758990902051209 
1587	 0.759512395670615 
1588	 0.760039048894201 
1589	 0.760564070528861 
1590	 0.761095837081969 
1591	 0.761641905155786 
1592	 0.762181931088778 
1593	 0.762724057524581 
1594	 0.763260768526785 
1595	 0.763806156008369 
1596	 0.764325981208297 
1597	 0.764818722046537 
1598	 0.765325672404209 
1599	 0.765801951999396 
1600	 0.766321762150809 
1601	 0.766885933355827 
1602	 0.76743263285216 
1603	 0.768002764601575 
1604	 0.768549116725968 
1605	 0.769073328691464 
1606	 0.769599399845476 
1607	 0.770121363333115 
1608	 0.770639627181295 
1609	 0.771155355299979 
1610	 0.77166540510662 
1611	 0.772163514869471 
1612	 0.772664948292485 
1613	 0.773178975105853 
1614	 0.773664480014741 
1615	 0.774130225398134 
1616	 0.77460513077613 
1617	 0.775060674861 
1618	 0.775524047530514 
1619	 0.776026823629849 
1620	 0.776474516002599 
1621	 0.776881479459029 
1622	 0.777297953303105 
1623	 0.777686948349959 
1624	 0.778080279747785 
1625	 0.77848954553575 
1626	 0.778878395808236 
1627	 0.779254577406857 
1628	 0.779612351446232 
1629	 0.779954703009738 
1630	 0.780289451225416 
1631	 0.780594452765622 
1632	 0.780919326107312 
1633	 0.781250659310314 
1634	 0.781578764266145 
1635	 0.781922395496331 
1636	 0.782240060464206 
1637	 0.782540751027466 
1638	 0.782839692668284 
1639	 0.783128541507617 
1640	 0.783412387601206 
1641	 0.783694954762416 
1642	 0.783966986029321 
1643	 0.784235472613974 
1644	 0.784479641278354 
1645	 0.784708133079594 
1646	 0.784922990959988 
1647	 0.785120590506276 
1648	 0.785301917448834 
1649	 0.785485182185983 
1650	 0.7856268919149 
1651	 0.785730283547675 
1652	 0.785818718390547 
1653	 0.785886460463626 
1654	 0.785919306423608 
1655	 0.785935771067079 
1656	 0.785912677190981 
1657	 0.785837881933711 
1658	 0.785750478226133 
1659	 0.78565693963248 
1660	 0.785506433714648 
1661	 0.7853301106609 
1662	 0.785098273862752 
1663	 0.784806667032783 
1664	 0.784466664140775 
1665	 0.784082012832028 
1666	 0.783639517161695 
1667	 0.783128491854131 
1668	 0.782602873986407 
1669	 0.782074238722998 
1670	 0.781432872136625 
1671	 0.780744212820342 
1672	 0.779948230007029 
1673	 0.77903020242256 
1674	 0.778052207647051 
1675	 0.776998771067605 
1676	 0.775897281154545 
1677	 0.774689694199847 
1678	 0.77350506075765 
1679	 0.772271002701549 
1680	 0.771034138631982 
1681	 0.769802483022523 
1682	 0.768521432878007 
1683	 0.767209797087339 
1684	 0.765912999964163 
1685	 0.764588337297154 
1686	 0.763271224924104 
1687	 0.761949802675355 
1688	 0.760616028950101 
1689	 0.75923253045267 
1690	 0.75794322127294 
1691	 0.756670544611498 
1692	 0.755502122386684 
1693	 0.754454659508082 
1694	 0.753369263835738 
1695	 0.752335384273492 
1696	 0.751255628146249 
1697	 0.750165162335799 
1698	 0.749039717825489 
1699	 0.747921081990162 
1700	 0.746765134169922 
1701	 0.745570123853044 
1702	 0.74435057632836 
1703	 0.743082380670427 
1704	 0.74180915457249 
1705	 0.740486218696881 
1706	 0.739179944628171 
1707	 0.737993808926325 
1708	 0.736796210796915 
1709	 0.735643814910013 
1710	 0.734560906910677 
1711	 0.73340938275496 
1712	 0.732348266231302 
1713	 0.731278998108738 
1714	 0.730152295940589 
1715	 0.729091674646562 
1716	 0.727950129280894 
1717	 0.726784610045373 
1718	 0.725612650253632 
1719	 0.724355007716559 
1720	 0.723118170346077 
1721	 0.721935337186305 
1722	 0.720792651361893 
1723	 0.719790521775152 
1724	 0.71888729697353 
1725	 0.718102718448307 
1726	 0.717527738356215 
1727	 0.717123796428392 
1728	 0.716941281263472 
1729	 0.7170328254235 
1730	 0.717350174805835 
1731	 0.71785354508884 
1732	 0.718617965197629 
1733	 0.719493035344497 
1734	 0.720508134602746 
1735	 0.721706433898026 
1736	 0.722900939816405 
1737	 0.724125024581909 
1738	 0.725324841045364 
1739	 0.726384487474717 
1740	 0.727380076105662 
1741	 0.728286865883317 
1742	 0.729122435876288 
1743	 0.729844492365068 
1744	 0.730478754008693 
1745	 0.731000005000685 
1746	 0.731373645488476 
1747	 0.73167407607639 
1748	 0.731874278933147 
1749	 0.732007171554375 
1750	 0.732046691081587 
1751	 0.732031853458332 
1752	 0.731919467551212 
1753	 0.731820427053086 
1754	 0.731658158832015 
1755	 0.731517878407583 
1756	 0.731350244148212 
1757	 0.731237664289807 
1758	 0.731146565197286 
1759	 0.731080631031277 
1760	 0.731120515576984 
1761	 0.731234432273108 
1762	 0.731429926598946 
1763	 0.731788961534932 
1764	 0.732229032424498 
1765	 0.73277929921596 
1766	 0.733471724296202 
1767	 0.734233412626565 
1768	 0.735133184485453 
1769	 0.736089835633494 
1770	 0.736989173268931 
1771	 0.73792265069277 
1772	 0.738803449472553 
1773	 0.739643652149466 
1774	 0.740518930874281 
1775	 0.741319126891647 
1776	 0.742119595531149 
1777	 0.742914327482556 
1778	 0.743581297525645 
1779	 0.744201703633934 
1780	 0.744732567031431 
1781	 0.745138201843417 
1782	 0.74556521207456 
1783	 0.745987276979182 
1784	 0.746413164410842 
1785	 0.746802055971883 
1786	 0.747153392934582 
1787	 0.7474633902398 
1788	 0.747760250785063 
1789	 0.748053129903568 
1790	 0.748333204386423 
1791	 0.748584386040864 
1792	 0.748825815295307 
1793	 0.749037459045801 
1794	 0.749240227263274 
1795	 0.749446083571106 
1796	 0.749618532376292 
1797	 0.749801023847351 
1798	 0.749955260565732 
1799	 0.750106763722837 
1800	 0.75032318637468 
1801	 0.746985237537863 
1802	 0.747386681325068 
1803	 0.74782792724176 
1804	 0.748330166864263 
1805	 0.748935214167303 
1806	 0.749461888726711 
1807	 0.750024519501426 
1808	 0.75053359450784 
1809	 0.751025172342502 
1810	 0.751464748283128 
1811	 0.751885227684553 
1812	 0.75227715594548 
1813	 0.75261026299342 
1814	 0.752955642020369 
1815	 0.753261258299656 
1816	 0.753551848811651 
1817	 0.753830371259659 
1818	 0.754082165950488 
1819	 0.754319434526506 
1820	 0.75453639882714 
1821	 0.754757949483105 
1822	 0.754929359309457 
1823	 0.755164276569128 
1824	 0.75543470264837 
1825	 0.755724379389823 
1826	 0.756024761417974 
1827	 0.75638593484375 
1828	 0.756672979453374 
1829	 0.756937419930504 
1830	 0.757201498431365 
1831	 0.757432933059195 
1832	 0.75768852700418 
1833	 0.757943496594698 
1834	 0.758179639552088 
1835	 0.75841707341115 
1836	 0.758642291223064 
1837	 0.758884818412065 
1838	 0.759121955357099 
1839	 0.759395718038775 
1840	 0.759694658025383 
1841	 0.75998474101495 
1842	 0.760279216213918 
1843	 0.760609925209849 
1844	 0.760935898090592 
1845	 0.761226731700653 
1846	 0.761526968267751 
1847	 0.761763947207191 
1848	 0.76197860006944 
1849	 0.762145010429847 
1850	 0.762325988307022 
1851	 0.76249115513619 
1852	 0.762656870276761 
1853	 0.762795999505882 
1854	 0.76288200396325 
1855	 0.762963138859556 
1856	 0.762991121667383 
1857	 0.762959853587066 
1858	 0.762930929932694 
1859	 0.762853001072674 
1860	 0.762724750153276 
1861	 0.762555124663412 
1862	 0.762372984800787 
1863	 0.762132459077611 
1864	 0.761776746911268 
1865	 0.761354595985788 
1866	 0.760844093660228 
1867	 0.7602068456327 
1868	 0.759529147851365 
1869	 0.758785386583565 
1870	 0.757949921766771 
1871	 0.756998157849366 
1872	 0.756067263947366 
1873	 0.755069252353178 
1874	 0.754059525699952 
1875	 0.753075325209196 
1876	 0.751974962392608 
1877	 0.750932422561592 
1878	 0.749780240634595 
1879	 0.748493903120164 
1880	 0.747228210350447 
1881	 0.7458119352323 
1882	 0.744253263782913 
1883	 0.74264148615628 
1884	 0.740883939689376 
1885	 0.738822962785945 
1886	 0.73669974627921 
1887	 0.734310950840325 
1888	 0.731716612734426 
1889	 0.729256285884019 
1890	 0.726532369105416 
1891	 0.723698216209503 
1892	 0.720806855946569 
1893	 0.717665140037305 
1894	 0.714246579234267 
1895	 0.710864318952073 
1896	 0.707297998737877 
1897	 0.703563791530548 
1898	 0.700068551420164 
1899	 0.696377331619912 
1900	 0.692717309270698 
1901	 0.6891242657582 
1902	 0.685225534751483 
1903	 0.681471829999954 
1904	 0.677750094615199 
1905	 0.673965334562396 
1906	 0.670263511558852 
1907	 0.666975241077138 
1908	 0.663608181995845 
1909	 0.660390767985781 
1910	 0.657343397575659 
1911	 0.654069629513829 
1912	 0.65100427754754 
1913	 0.647996633292541 
1914	 0.644953618607458 
1915	 0.642140731438244 
1916	 0.639557581001119 
1917	 0.636916750288253 
1918	 0.634387612867765 
1919	 0.632013477726749 
1920	 0.629495193227284 
1921	 0.627164867096553 
1922	 0.624882352602844 
1923	 0.622597498722523 
1924	 0.620586838609945 
1925	 0.618576745453311 
1926	 0.616652423379329 
1927	 0.614866677408163 
1928	 0.613097226164167 
1929	 0.611330014074979 
1930	 0.609712939192226 
1931	 0.608182408794089 
1932	 0.606718411561447 
1933	 0.605486704885918 
1934	 0.604334552375732 
1935	 0.603263818507344 
1936	 0.602373686709584 
1937	 0.601523570066048 
1938	 0.6007334156525 
1939	 0.600062711848807 
1940	 0.599497199968472 
1941	 0.598984477246362 
1942	 0.598612973813102 
1943	 0.59835024988751 
1944	 0.598185706922434 
1945	 0.598151415622163 
1946	 0.598195849777517 
1947	 0.598330196889285 
1948	 0.598546321808227 
1949	 0.598805217046657 
1950	 0.599130437101446 
1951	 0.599524790807141 
1952	 0.599974837037688 
1953	 0.600475638933212 
1954	 0.601057160123445 
1955	 0.601724331667832 
1956	 0.602389438514995 
1957	 0.603130637541019 
1958	 0.603932821346408 
1959	 0.604690531342307 
1960	 0.605524819508482 
1961	 0.6063614178299 
1962	 0.607195458371706 
1963	 0.608070747433451 
1964	 0.608992433076356 
1965	 0.609899929161715 
1966	 0.61083401235142 
1967	 0.611781826472776 
1968	 0.612666650490938 
1969	 0.613596873086343 
1970	 0.614498889548435 
1971	 0.615402827867852 
1972	 0.616373798478345 
1973	 0.617284872427044 
1974	 0.618202379697052 
1975	 0.619133567445927 
1976	 0.620038659961558 
1977	 0.620900080642245 
1978	 0.621813252375507 
1979	 0.622741269009974 
1980	 0.623649635883635 
1981	 0.624644017883229 
1982	 0.625613511731428 
1983	 0.626591956689596 
1984	 0.627608582746413 
1985	 0.628548624780363 
1986	 0.629506066603805 
1987	 0.63044201383917 
1988	 0.631330252135967 
1989	 0.632258665852862 
1990	 0.633200825277308 
1991	 0.634124636337659 
1992	 0.635057822362013 
1993	 0.636013962550823 
1994	 0.63686846411748 
1995	 0.637773862075727 
1996	 0.63865626904177 
1997	 0.639488563664334 
1998	 0.640387036513565 
1999	 0.641317792343846 
2000	 0.64223142771099 
2001	 0.643195591260109 
2002	 0.644110704987675 
2003	 0.645003329018379 
2004	 0.645892327649456 
2005	 0.646731885406576 
2006	 0.647603292050664 
2007	 0.64852603657034 
2008	 0.649378965871473 
2009	 0.650199694793436 
2010	 0.651028335321902 
2011	 0.651724267127146 
2012	 0.652432585161272 
2013	 0.653115442481566 
2014	 0.65377432087356 
2015	 0.654404942052666 
2016	 0.655051280495267 
2017	 0.655589767684583 
2018	 0.656080175133833 
2019	 0.656515490843003 
2020	 0.656887662970117 
2021	 0.65718342533256 
2022	 0.657416681844302 
2023	 0.65758647106427 
2024	 0.657672213512658 
2025	 0.657648424502599 
2026	 0.657574227901591 
2027	 0.657424232255199 
2028	 0.657226185003926 
2029	 0.656944231907619 
2030	 0.656636798422935 
2031	 0.656279829606212 
2032	 0.655880534158129 
2033	 0.655402088119532 
2034	 0.654943023632009 
2035	 0.654443515741293 
2036	 0.653941188175515 
2037	 0.653482523610698 
2038	 0.653045226484087 
2039	 0.652684891557568 
2040	 0.652360801363797 
2041	 0.65212546836439 
2042	 0.651934854038521 
2043	 0.651871709982662 
2044	 0.651915017224301 
2045	 0.652018952375587 
2046	 0.652252406075875 
2047	 0.652498918629344 
2048	 0.652765919667777 
2049	 0.653128587843626 
2050	 0.653587973244148 
2051	 0.654065201939552 
2052	 0.654591136764372 
2053	 0.655207089700374 
2054	 0.655834947328928 
2055	 0.656468087813443 
2056	 0.657194285327451 
2057	 0.657985315920436 
2058	 0.658829953216059 
2059	 0.659733338812499 
2060	 0.660692044479074 
2061	 0.661757164377316 
2062	 0.662794870346413 
2063	 0.663885026630367 
2064	 0.66496707046025 
2065	 0.666043403367395 
2066	 0.667096980991792 
2067	 0.668287003252995 
2068	 0.669421143992402 
2069	 0.670549142647782 
2070	 0.671739226214223 
2071	 0.672827339000286 
2072	 0.67383180720554 
2073	 0.674860832714734 
2074	 0.675848394608574 
2075	 0.676861140274455 
2076	 0.677911474095322 
2077	 0.678883787320944 
2078	 0.679876429404469 
2079	 0.680774691604544 
2080	 0.681563777243757 
2081	 0.682357354393591 
2082	 0.683133857429411 
2083	 0.683810433492963 
2084	 0.684532516260491 
2085	 0.685225137534492 
2086	 0.685864193772506 
2087	 0.686484075529576 
2088	 0.687040480041413 
2089	 0.687516268123976 
2090	 0.687997504472336 
2091	 0.688432682259035 
2092	 0.688871714083672 
2093	 0.689316317153218 
2094	 0.689717559743245 
2095	 0.690114131162435 
2096	 0.69045016644664 
2097	 0.690729744220156 
2098	 0.690991317700096 
2099	 0.691200880407863 
2100	 0.691380321103879 
2101	 0.691543279253037 
2102	 0.691673391369208 
2103	 0.691794550665519 
2104	 0.691890783052511 
2105	 0.691987183193805 
2106	 0.692069438983323 
2107	 0.69215325380218 
2108	 0.692228848873026 
2109	 0.692299571790269 
2110	 0.69239614738656 
2111	 0.692428990762791 
2112	 0.692429283911306 
2113	 0.692416360321885 
2114	 0.692331295509045 
2115	 0.69228025931166 
2116	 0.69226166887329 
2117	 0.692208669393872 
2118	 0.692125251545882 
2119	 0.692029672043032 
2120	 0.691922562646034 
2121	 0.691765852582858 
2122	 0.691637625315943 
2123	 0.691546093435228 
2124	 0.691394264796744 
2125	 0.69122371839761 
2126	 0.691024268175837 
2127	 0.690809667601107 
2128	 0.690530261656713 
2129	 0.690207699754655 
2130	 0.689856260384381 
2131	 0.689453260055195 
2132	 0.689012478382324 
2133	 0.688587932020874 
2134	 0.688058743922642 
2135	 0.687369733474767 
2136	 0.686698071386335 
2137	 0.685925934769168 
2138	 0.685028887388583 
2139	 0.684127527024025 
2140	 0.683218068640603 
2141	 0.682187655029016 
2142	 0.681059624275703 
2143	 0.679916812086214 
2144	 0.678666786579277 
2145	 0.677456746310218 
2146	 0.676193843128758 
2147	 0.67499768479466 
2148	 0.673856528580505 
2149	 0.672665853602448 
2150	 0.671521854068735 
2151	 0.670319971093667 
2152	 0.669040750747573 
2153	 0.667788482740237 
2154	 0.666488094983608 
2155	 0.665158798030777 
2156	 0.66386753528714 
2157	 0.66257491300218 
2158	 0.661260351172851 
2159	 0.659994837903561 
2160	 0.658620766765585 
2161	 0.657160363680744 
2162	 0.655741180767032 
2163	 0.654235980667816 
2164	 0.652844237074395 
2165	 0.651493004577751 
2166	 0.650184787736307 
2167	 0.648960871284701 
2168	 0.64772401850435 
2169	 0.646464682646943 
2170	 0.645309204207402 
2171	 0.644134539144609 
2172	 0.643114289908636 
2173	 0.64222740606021 
2174	 0.64141116016206 
2175	 0.640725536302832 
2176	 0.640131491378055 
2177	 0.639556604628615 
2178	 0.639061273894897 
2179	 0.638597803934012 
2180	 0.63815775037617 
2181	 0.637804386049965 
2182	 0.63753812318373 
2183	 0.637279554541636 
2184	 0.637052512935299 
2185	 0.636912177981419 
2186	 0.636810473994902 
2187	 0.636792757175171 
2188	 0.636894984980912 
2189	 0.637003586404503 
2190	 0.637188058425246 
2191	 0.637364242022153 
2192	 0.63757599522387 
2193	 0.637790102266059 
2194	 0.638030335170886 
2195	 0.638251660009965 
2196	 0.638477786078112 
2197	 0.638700771264214 
2198	 0.63890964396526 
2199	 0.639098185131341 
2200	 0.639297707783914 
2201	 0.639504450786932 
2202	 0.639696383212477 
2203	 0.639877843950077 
2204	 0.640058738215193 
2205	 0.640235341136759 
2206	 0.640395136101704 
2207	 0.640555166809806 
2208	 0.64069503255858 
2209	 0.640813268776797 
2210	 0.640919190708799 
2211	 0.641016913615247 
2212	 0.641086734312401 
2213	 0.641132079433646 
2214	 0.641170193145726 
2215	 0.641130374117039 
2216	 0.641182685400712 
2217	 0.641310411113899 
2218	 0.641382908288244 
2219	 0.641528779157596 
2220	 0.641585989951993 
2221	 0.641576272740783 
2222	 0.641504346564767 
2223	 0.641428578868425 
2224	 0.641303139045536 
2225	 0.641199895533833 
2226	 0.641028278335487 
2227	 0.640815197686696 
2228	 0.640608300436655 
2229	 0.640260227837415 
2230	 0.63981498462147 
2231	 0.639309827793057 
2232	 0.63871250753974 
2233	 0.63804734692172 
2234	 0.637353885928033 
2235	 0.636497037830734 
2236	 0.635541859051519 
2237	 0.634448544482402 
2238	 0.633145114295365 
2239	 0.631859103354151 
2240	 0.630526583159052 
2241	 0.629060692166609 
2242	 0.627617757249017 
2243	 0.625919031751214 
2244	 0.623998356817782 
2245	 0.621991032004046 
2246	 0.619718712008845 
2247	 0.617488142776026 
2248	 0.615232351609487 
2249	 0.612870678340312 
2250	 0.610459368547246 
2251	 0.608027811543903 
2252	 0.605272869399282 
2253	 0.602581529283513 
2254	 0.59978933735653 
2255	 0.596892027754056 
2256	 0.59425244060914 
2257	 0.591519414975381 
2258	 0.588862145452817 
2259	 0.586285915993107 
2260	 0.583688835324987 
2261	 0.581045585061351 
2262	 0.578576599748095 
2263	 0.576124955160629 
2264	 0.573853133069683 
2265	 0.571761237879876 
2266	 0.569660751871946 
2267	 0.567704962288785 
2268	 0.565709853945303 
2269	 0.563713550079066 
2270	 0.561800079452344 
2271	 0.559881956390408 
2272	 0.558076703180629 
2273	 0.556378162817414 
2274	 0.554701501807173 
2275	 0.553154023151449 
2276	 0.551548418095665 
2277	 0.549958332656817 
2278	 0.548359610900212 
2279	 0.546705985660605 
2280	 0.545097861486334 
2281	 0.543531306189332 
2282	 0.541934960420152 
2283	 0.540343774203879 
2284	 0.538774331964856 
2285	 0.537077332419096 
2286	 0.535447481668203 
2287	 0.533829711177283 
2288	 0.53219463686411 
2289	 0.530704444897522 
2290	 0.529213862275747 
2291	 0.52766425339998 
2292	 0.526043757768611 
2293	 0.524282690475447 
2294	 0.522489976822689 
2295	 0.520589016807097 
2296	 0.518609679745287 
2297	 0.51664028344177 
2298	 0.514602567919947 
2299	 0.512549869128535 
2300	 0.510487211878746 
2301	 0.508440390738349 
2302	 0.506244865041756 
2303	 0.504388717913246 
2304	 0.502526269954464 
2305	 0.501093207929939 
2306	 0.499915234649579 
2307	 0.499100492127584 
2308	 0.498589909708524 
2309	 0.498530438706413 
2310	 0.498781627454304 
2311	 0.499620059329019 
2312	 0.501166295330112 
2313	 0.502761244457435 
2314	 0.504885295190267 
2315	 0.507001832227133 
2316	 0.509303981136286 
2317	 0.51156846919291 
2318	 0.514212946723225 
2319	 0.516352796514505 
2320	 0.51842269881268 
2321	 0.520075564144555 
2322	 0.52135928995036 
2323	 0.522374660124553 
2324	 0.522943856008585 
2325	 0.523431510622218 
2326	 0.523653276288966 
2327	 0.523740041230089 
2328	 0.523648676301851 
2329	 0.523467476089292 
2330	 0.523126441588069 
2331	 0.522618930332869 
2332	 0.522021075686847 
2333	 0.521389196965021 
2334	 0.520471341215108 
2335	 0.519378616625581 
2336	 0.518086388126318 
2337	 0.5165215070615 
2338	 0.514912067258815 
2339	 0.51314000042522 
2340	 0.511328810694296 
2341	 0.509442670433992 
2342	 0.507363914872952 
2343	 0.505376020462743 
2344	 0.503467162093967 
2345	 0.501644875455824 
2346	 0.500197448319744 
2347	 0.499002717313174 
2348	 0.498109922657991 
2349	 0.49779174663142 
2350	 0.497949079492307 
2351	 0.498559898396296 
2352	 0.499600610908784 
2353	 0.501165264373672 
2354	 0.50292579823663 
2355	 0.504887868596269 
2356	 0.506955440881355 
2357	 0.508920482573823 
2358	 0.510994836348831 
2359	 0.512827957370368 
2360	 0.514323202948372 
2361	 0.515649731205857 
2362	 0.516670133259806 
2363	 0.517415487014561 
2364	 0.518070679202473 
2365	 0.518613337719821 
2366	 0.519146916510112 
2367	 0.519592578375553 
2368	 0.519970638342073 
2369	 0.52040433097738 
2370	 0.52069863359411 
2371	 0.520848485341581 
2372	 0.520919646637043 
2373	 0.521027437555407 
2374	 0.521172181624317 
2375	 0.521281016774856 
2376	 0.521387130959568 
2377	 0.521492683106079 
2378	 0.521608349849661 
2379	 0.521519409563365 
2380	 0.521341284935616 
2381	 0.521327723714688 
2382	 0.521311063416874 
2383	 0.521214475573292 
2384	 0.521185876229079 
2385	 0.521295047088283 
2386	 0.521259845172753 
2387	 0.521090287405119 
2388	 0.521094113578656 
2389	 0.521202569438215 
2390	 0.521213639371472 
2391	 0.521222007244648 
2392	 0.521184200047113 
2393	 0.521104623645334 
2394	 0.521018483115141 
2395	 0.520928740616806 
2396	 0.520857709286821 
2397	 0.520720698242738 
2398	 0.520673982575176 
2399	 0.520728340121863 
2400	 0.52066180183684 
2401	 0.520577465602067 
2402	 0.520452179183849 
2403	 0.520203618757555 
2404	 0.520079599257716 
2405	 0.520130914622508 
2406	 0.520144882829593 
2407	 0.520215160576351 
2408	 0.520294477796572 
2409	 0.520177414556589 
2410	 0.520027749186926 
2411	 0.520023387179123 
2412	 0.519931397765746 
2413	 0.519884159246511 
2414	 0.519908046288964 
2415	 0.519844684383943 
2416	 0.519892773152399 
2417	 0.519841548432492 
2418	 0.51973615753086 
2419	 0.51967012456519 
2420	 0.519450927123015 
2421	 0.519314559318683 
2422	 0.519122725887363 
2423	 0.518789844668488 
2424	 0.518516876627327 
2425	 0.518159930921478 
2426	 0.517815329337748 
2427	 0.517609478004892 
2428	 0.517465164303498 
2429	 0.517318455443382 
2430	 0.517093688310566 
2431	 0.516788447503406 
2432	 0.516406848780649 
2433	 0.516024879015502 
2434	 0.515664611878906 
2435	 0.51524973401213 
2436	 0.514724125114579 
2437	 0.514179513484096 
2438	 0.513757031230918 
2439	 0.513286231264366 
2440	 0.512769043547716 
2441	 0.512173006825579 
2442	 0.511355984189616 
2443	 0.510566262852496 
2444	 0.509790694961016 
2445	 0.508971340191082 
2446	 0.508159303962545 
2447	 0.507353216884519 
2448	 0.506658030609063 
2449	 0.505921695940528 
2450	 0.505104523370105 
2451	 0.504168235358767 
2452	 0.503089788968499 
2453	 0.502106544674527 
2454	 0.501069139195533 
2455	 0.500178274767063 
2456	 0.499403552881067 
2457	 0.498207924416616 
2458	 0.497377652705183 
2459	 0.496943720376688 
2460	 0.496255735728594 
2461	 0.495718905903944 
2462	 0.49503052623656 
2463	 0.493868523042127 
2464	 0.49253178506389 
2465	 0.491669867114545 
2466	 0.491202899079214 
2467	 0.490540112321645 
2468	 0.490211780086201 
2469	 0.48991837412535 
2470	 0.489276093210847 
2471	 0.488610364333592 
2472	 0.487857570243577 
2473	 0.487178620900745 
2474	 0.486513076937913 
2475	 0.485820082518391 
2476	 0.485342689852072 
2477	 0.484632460482962 
2478	 0.483593789448659 
2479	 0.482878528483598 
2480	 0.482313900243691 
2481	 0.481848506854296 
2482	 0.481612829862681 
2483	 0.481474308744183 
2484	 0.481204482025326 
2485	 0.481012796842551 
2486	 0.480551231881133 
2487	 0.479644479669742 
2488	 0.478973932347791 
2489	 0.478404537053921 
2490	 0.478023587612816 
2491	 0.477831740846055 
2492	 0.477257615892124 
2493	 0.47640436984386 
2494	 0.475677600860348 
2495	 0.475439751520239 
2496	 0.475607462894812 
2497	 0.475769158824614 
2498	 0.47591151639104 
2499	 0.475735936302029 
2500	 0.475624349489826 
