Wavelength	ProbetaAcolman00029.asd
350	 0.832992568400939 
351	 0.841844513456583 
352	 0.841567423699319 
353	 0.822323721414775 
354	 0.845319014634787 
355	 0.839470237320388 
356	 0.831224926966083 
357	 0.845234437096656 
358	 0.830610230172563 
359	 0.817900818745085 
360	 0.815191008793586 
361	 0.815487791995681 
362	 0.806334591538703 
363	 0.802198158885948 
364	 0.809603676295362 
365	 0.821005688192069 
366	 0.816661602531258 
367	 0.807261051410332 
368	 0.806161220161631 
369	 0.809828018585323 
370	 0.816351341245566 
371	 0.819087306995087 
372	 0.811082423687469 
373	 0.802404377920494 
374	 0.798843287784859 
375	 0.799779925039703 
376	 0.797053736117957 
377	 0.797089364650829 
378	 0.795898803870464 
379	 0.791160278121636 
380	 0.794658522510314 
381	 0.79124130176383 
382	 0.787389258382399 
383	 0.798287255011252 
384	 0.796603924446637 
385	 0.792021521737347 
386	 0.791034781716872 
387	 0.789435732865548 
388	 0.789524137424184 
389	 0.790896191098443 
390	 0.79169429214927 
391	 0.787005759277285 
392	 0.785978260188026 
393	 0.789149770522405 
394	 0.791218141248772 
395	 0.788050377857392 
396	 0.785760481970273 
397	 0.786695910622804 
398	 0.785202006650889 
399	 0.78743980848585 
400	 0.79113097449442 
401	 0.792453477986611 
402	 0.790475864035276 
403	 0.791638485315569 
404	 0.795733225253091 
405	 0.79798898890081 
406	 0.802115791227348 
407	 0.804790562349154 
408	 0.804854957473842 
409	 0.806559210896642 
410	 0.808525544792594 
411	 0.811265574424289 
412	 0.815042588890093 
413	 0.816365938251521 
414	 0.819587278851628 
415	 0.824705322381665 
416	 0.827887722487023 
417	 0.832354157310659 
418	 0.834940642719882 
419	 0.834530584178331 
420	 0.83681409222824 
421	 0.838191948883667 
422	 0.83944394943189 
423	 0.842303550579213 
424	 0.843521350506792 
425	 0.845080015573461 
426	 0.847124351590305 
427	 0.847457474222314 
428	 0.848919513620847 
429	 0.850486204845789 
430	 0.851020246475984 
431	 0.851443207629025 
432	 0.851601339179866 
433	 0.852105491611254 
434	 0.853634995260347 
435	 0.853832868898601 
436	 0.85420333168941 
437	 0.855221891956615 
438	 0.855235741106053 
439	 0.854959492847688 
440	 0.85485996105858 
441	 0.855095237739581 
442	 0.85480920101909 
443	 0.854788659421372 
444	 0.854926263197703 
445	 0.854464360367824 
446	 0.854006275932654 
447	 0.853804850998744 
448	 0.853789238490988 
449	 0.853305039232206 
450	 0.853068575395619 
451	 0.852901706522693 
452	 0.85238486256297 
453	 0.851746578964786 
454	 0.851145602514409 
455	 0.850789776094734 
456	 0.850908474174975 
457	 0.849991574806212 
458	 0.848962347979935 
459	 0.84860454323458 
460	 0.847682828679511 
461	 0.846958621607015 
462	 0.846482549036879 
463	 0.845922942071342 
464	 0.845189983731612 
465	 0.844719648110593 
466	 0.844458136565455 
467	 0.843531518045023 
468	 0.842988002552724 
469	 0.842457950210112 
470	 0.841561147761404 
471	 0.841622733094164 
472	 0.841315430905795 
473	 0.840530321386615 
474	 0.840141829116904 
475	 0.840175810482295 
476	 0.840132860180779 
477	 0.839756114917962 
478	 0.839495644342615 
479	 0.839095901368218 
480	 0.838740174305364 
481	 0.838711046147807 
482	 0.83889592420079 
483	 0.838931322246148 
484	 0.838735524951399 
485	 0.838554962882247 
486	 0.838664132535988 
487	 0.839071438103021 
488	 0.839615495695662 
489	 0.839857185484254 
490	 0.840286231278176 
491	 0.840900431271136 
492	 0.841433449345582 
493	 0.842036917196953 
494	 0.842772072450435 
495	 0.843615077651069 
496	 0.844430576277165 
497	 0.845160791144942 
498	 0.845939450126507 
499	 0.846935132402744 
500	 0.848199220545346 
501	 0.849369996297159 
502	 0.850367839731711 
503	 0.851379996394317 
504	 0.852628314141791 
505	 0.853946300768058 
506	 0.85517673676257 
507	 0.856349675594892 
508	 0.857601664378707 
509	 0.858969754780657 
510	 0.860443195552486 
511	 0.862098060968309 
512	 0.863526788492285 
513	 0.864725077238382 
514	 0.8662407202784 
515	 0.867662601170263 
516	 0.86895356328668 
517	 0.870194550430719 
518	 0.871514645279773 
519	 0.872911161200169 
520	 0.874257359275998 
521	 0.87537835489454 
522	 0.876594512454585 
523	 0.877867547363376 
524	 0.879111991929081 
525	 0.880260760517304 
526	 0.8813541445984 
527	 0.882418253890195 
528	 0.883462205344848 
529	 0.884405242491366 
530	 0.885409356280873 
531	 0.886496523111499 
532	 0.887524821045954 
533	 0.888282035659183 
534	 0.889004757974088 
535	 0.889871266517406 
536	 0.890588804039652 
537	 0.89133183045039 
538	 0.892092205001901 
539	 0.892790537016243 
540	 0.89366249360411 
541	 0.894559130788246 
542	 0.895349426390284 
543	 0.89598809089299 
544	 0.896667002474426 
545	 0.897378452322915 
546	 0.898066857968034 
547	 0.8987951192557 
548	 0.899378846753641 
549	 0.899904248778735 
550	 0.900683471111236 
551	 0.901523081642945 
552	 0.902168013507192 
553	 0.902539950193029 
554	 0.903008208512328 
555	 0.903495309072459 
556	 0.903968430838134 
557	 0.904400325224694 
558	 0.904726253257609 
559	 0.905013300001201 
560	 0.90533135956291 
561	 0.90572962001373 
562	 0.906416499325215 
563	 0.907235631588767 
564	 0.907980116085305 
565	 0.908673088465917 
566	 0.909260736997641 
567	 0.909748566861764 
568	 0.910191799270614 
569	 0.910621288128941 
570	 0.911071045504646 
571	 0.911536674633952 
572	 0.911924409030178 
573	 0.912396795927255 
574	 0.912808176738723 
575	 0.912987673705405 
576	 0.913362322678742 
577	 0.913743300519357 
578	 0.914044424680955 
579	 0.914343364236579 
580	 0.914674302080685 
581	 0.914843645335523 
582	 0.914812490794797 
583	 0.915177247190657 
584	 0.91556525025781 
585	 0.915805358873277 
586	 0.915928312828546 
587	 0.916620967532622 
588	 0.917230578524581 
589	 0.917525078901306 
590	 0.918220557403474 
591	 0.918640728505736 
592	 0.918936582446119 
593	 0.919449665619221 
594	 0.920208957847018 
595	 0.920861730232823 
596	 0.921325602303082 
597	 0.921773154299252 
598	 0.922339807251346 
599	 0.922719321997859 
600	 0.922863388924433 
601	 0.923572944054477 
602	 0.924085167006916 
603	 0.924245284550496 
604	 0.924251708080356 
605	 0.924700311074901 
606	 0.925242572683225 
607	 0.9256001059776 
608	 0.925690251764408 
609	 0.926153061672999 
610	 0.926697234758429 
611	 0.926950766679831 
612	 0.927060925554812 
613	 0.927492333873976 
614	 0.928055599918988 
615	 0.928200463747756 
616	 0.928379745612526 
617	 0.928842429590957 
618	 0.929492124168269 
619	 0.929665413471499 
620	 0.929931113809588 
621	 0.930385761370031 
622	 0.930903399828242 
623	 0.93109643380111 
624	 0.9312721415135 
625	 0.931591318738968 
626	 0.932032513484268 
627	 0.932384564904094 
628	 0.93261266535676 
629	 0.932794094743115 
630	 0.933206399873333 
631	 0.933451821851066 
632	 0.933550055040034 
633	 0.933724911454448 
634	 0.93417713403608 
635	 0.934529196597559 
636	 0.934663781327037 
637	 0.934845832113694 
638	 0.935158634199363 
639	 0.935448259822503 
640	 0.935603991261556 
641	 0.935881608837594 
642	 0.936106490601368 
643	 0.936312642805915 
644	 0.93663189486973 
645	 0.936823863485508 
646	 0.936932563510677 
647	 0.937058111503246 
648	 0.937340139551831 
649	 0.937468682262463 
650	 0.937564185842764 
651	 0.937808356571916 
652	 0.938049944528141 
653	 0.93818446225349 
654	 0.938261300133835 
655	 0.938442272042412 
656	 0.938646701517337 
657	 0.938801308355214 
658	 0.938915372917533 
659	 0.939185380723299 
660	 0.939328818986306 
661	 0.939438183711894 
662	 0.939681226668151 
663	 0.939817862497689 
664	 0.939913147411615 
665	 0.940051624871259 
666	 0.940311616034567 
667	 0.940622075980465 
668	 0.940853811245994 
669	 0.940958571380431 
670	 0.941109159578468 
671	 0.941288656027669 
672	 0.941474469167437 
673	 0.941639768914541 
674	 0.941791747331608 
675	 0.94190006004219 
676	 0.942006739600337 
677	 0.942237900998811 
678	 0.942310443455588 
679	 0.94239314985175 
680	 0.942628310849008 
681	 0.942745751073742 
682	 0.942845859293204 
683	 0.943032607324742 
684	 0.943362404179656 
685	 0.943519584469213 
686	 0.943522982600045 
687	 0.943497833189534 
688	 0.943656602537536 
689	 0.9438439358093 
690	 0.944011860167892 
691	 0.944166792379872 
692	 0.944413977082602 
693	 0.944585051523471 
694	 0.94470267057554 
695	 0.944897261964039 
696	 0.945049364422007 
697	 0.94529452859584 
698	 0.945590663849525 
699	 0.945570828661738 
700	 0.945677206404489 
701	 0.945914739359017 
702	 0.946150795905596 
703	 0.946253599861365 
704	 0.946367474906423 
705	 0.946533457181018 
706	 0.946708471362004 
707	 0.946826417741541 
708	 0.946907756937432 
709	 0.94699213910125 
710	 0.947125403764675 
711	 0.947331358773718 
712	 0.947520805852738 
713	 0.947593103868148 
714	 0.947526032412933 
715	 0.947589655202187 
716	 0.947769007333522 
717	 0.947860446221689 
718	 0.94805985466454 
719	 0.948262659529304 
720	 0.948382342175744 
721	 0.948427018246452 
722	 0.948478139265753 
723	 0.948508561646636 
724	 0.948510715268429 
725	 0.948697480575735 
726	 0.94889183337411 
727	 0.949052826665093 
728	 0.94923421474513 
729	 0.949330367971135 
730	 0.949448236702076 
731	 0.949620293485575 
732	 0.949713767120444 
733	 0.949773997571635 
734	 0.94987108820993 
735	 0.950041317885713 
736	 0.950170070301818 
737	 0.95024729759219 
738	 0.950338879635567 
739	 0.950528202813106 
740	 0.950587274253692 
741	 0.950577726346011 
742	 0.950593542319473 
743	 0.950717274893625 
744	 0.950910247842769 
745	 0.951009923810011 
746	 0.95095506874359 
747	 0.951136245232967 
748	 0.95120533110928 
749	 0.951299434664842 
750	 0.951725495781832 
751	 0.951772323387107 
752	 0.951737169237215 
753	 0.951819727086563 
754	 0.951952243880197 
755	 0.95214599049216 
756	 0.952277491971806 
757	 0.952292030883123 
758	 0.952406355709181 
759	 0.952515941071982 
760	 0.95268484769896 
761	 0.952990929573712 
762	 0.953102671474871 
763	 0.953183959271968 
764	 0.953294602495628 
765	 0.953351051098315 
766	 0.953541137965157 
767	 0.953751396381757 
768	 0.953890689163505 
769	 0.954059323046399 
770	 0.954198618691415 
771	 0.954384680650504 
772	 0.954676178198648 
773	 0.954810568569315 
774	 0.954974759737855 
775	 0.955134824233177 
776	 0.95510076104036 
777	 0.955225614985696 
778	 0.955437140725493 
779	 0.955602082503856 
780	 0.95559332036405 
781	 0.955727672383046 
782	 0.955948380234034 
783	 0.956122478229449 
784	 0.956267159734615 
785	 0.956440938939624 
786	 0.956586025986855 
787	 0.956613364693932 
788	 0.95670736185335 
789	 0.956983346916487 
790	 0.957294078006345 
791	 0.957226184377824 
792	 0.957165231380268 
793	 0.957244012423424 
794	 0.957447916263255 
795	 0.957554335952085 
796	 0.957615545314188 
797	 0.957674993761654 
798	 0.957779686445184 
799	 0.957973239785893 
800	 0.958159540271868 
801	 0.958280685119301 
802	 0.958336197364288 
803	 0.958504279476723 
804	 0.958704302094924 
805	 0.958861090653711 
806	 0.958966258655074 
807	 0.959069009103927 
808	 0.959159286150566 
809	 0.959252591570132 
810	 0.959494189287582 
811	 0.959701280055068 
812	 0.959853169580274 
813	 0.960013565013592 
814	 0.960260956097132 
815	 0.960413031583959 
816	 0.960489678768426 
817	 0.960674707294367 
818	 0.960672749333592 
819	 0.960707269764491 
820	 0.960889433231138 
821	 0.961021815822097 
822	 0.961094298338684 
823	 0.961154709944651 
824	 0.961264008100845 
825	 0.961467729102046 
826	 0.961587526238525 
827	 0.961617162141336 
828	 0.961638051698626 
829	 0.961679091398359 
830	 0.96178993797925 
831	 0.962004880271344 
832	 0.962309535413705 
833	 0.962332546204893 
834	 0.962299713284937 
835	 0.962327220213096 
836	 0.962220961131296 
837	 0.962208321885328 
838	 0.962293682890792 
839	 0.962411303152978 
840	 0.962485651842528 
841	 0.962451075762613 
842	 0.962406229173377 
843	 0.962475631863781 
844	 0.962520596520104 
845	 0.962721567884441 
846	 0.962926068846973 
847	 0.962804876787553 
848	 0.962777099295439 
849	 0.962827046887055 
850	 0.962884751106013 
851	 0.962886864640127 
852	 0.962999279545625 
853	 0.963161504791375 
854	 0.963285164653605 
855	 0.963327175651924 
856	 0.963395380979197 
857	 0.963505900565833 
858	 0.963635810920889 
859	 0.963745095707147 
860	 0.963878529193084 
861	 0.964014187710829 
862	 0.964121893104096 
863	 0.964362705798508 
864	 0.964437582602478 
865	 0.964382747139902 
866	 0.964506941956204 
867	 0.964525703957685 
868	 0.964476307728416 
869	 0.964424607495696 
870	 0.964412773089203 
871	 0.964494488115431 
872	 0.964642677931981 
873	 0.964806963232825 
874	 0.964936651520126 
875	 0.965078973604312 
876	 0.965081447698104 
877	 0.964885845893783 
878	 0.964935694224118 
879	 0.965229366853556 
880	 0.965484185505835 
881	 0.965377241791431 
882	 0.965140521417073 
883	 0.965080707286002 
884	 0.965157019803136 
885	 0.965088900214067 
886	 0.965017375693236 
887	 0.965056548893163 
888	 0.965184522946599 
889	 0.965229145906204 
890	 0.965074553033842 
891	 0.965049130957612 
892	 0.965231078920456 
893	 0.965149463662728 
894	 0.965183262794226 
895	 0.965232366507705 
896	 0.96516112768727 
897	 0.965058512943908 
898	 0.964857773309903 
899	 0.96476923019931 
900	 0.96495454789439 
901	 0.965052320061824 
902	 0.965172934734018 
903	 0.965225909394185 
904	 0.965114921550895 
905	 0.965240161060326 
906	 0.965357932017342 
907	 0.965387018873767 
908	 0.965412470699605 
909	 0.965600922455826 
910	 0.965818936245423 
911	 0.965961571683205 
912	 0.966007551746844 
913	 0.966118734498086 
914	 0.966187573803287 
915	 0.966220017946172 
916	 0.966418905411997 
917	 0.966692890381485 
918	 0.966788364783306 
919	 0.966671006256117 
920	 0.966751319057602 
921	 0.966805522014216 
922	 0.966929407299081 
923	 0.967177079130175 
924	 0.967320901108499 
925	 0.967289591575853 
926	 0.967240795937012 
927	 0.967329258853143 
928	 0.967387010595885 
929	 0.96769642703516 
930	 0.967936489021087 
931	 0.967738201108085 
932	 0.967634004717319 
933	 0.967819725114529 
934	 0.968083006241645 
935	 0.968092366993551 
936	 0.968185899885419 
937	 0.968308467720443 
938	 0.968315922649578 
939	 0.968122819211875 
940	 0.968329167031264 
941	 0.968523412120209 
942	 0.968532790564623 
943	 0.968494586835794 
944	 0.968604008379356 
945	 0.968612636504011 
946	 0.968441467841314 
947	 0.968268247905937 
948	 0.968410646442476 
949	 0.96855158073683 
950	 0.968499283789289 
951	 0.968364307681289 
952	 0.968367895029131 
953	 0.968331057588766 
954	 0.968223529202846 
955	 0.968319791619787 
956	 0.968267541345883 
957	 0.967983813323936 
958	 0.96762790271952 
959	 0.967628128363672 
960	 0.967410369322395 
961	 0.96730685512722 
962	 0.967491899571731 
963	 0.967422599632791 
964	 0.967412977520034 
965	 0.967515899900427 
966	 0.967690918671622 
967	 0.967848207852712 
968	 0.967922731148644 
969	 0.968001428554634 
970	 0.968206565568563 
971	 0.96863044414213 
972	 0.968931443141894 
973	 0.969042966506764 
974	 0.969060906914279 
975	 0.969222624705218 
976	 0.969525661536299 
977	 0.969717891655073 
978	 0.969644093747564 
979	 0.969682676025103 
980	 0.96978514247684 
981	 0.969890382161268 
982	 0.969973658309778 
983	 0.970185649287303 
984	 0.97023147742614 
985	 0.970286171827499 
986	 0.970584620722837 
987	 0.970997163340383 
988	 0.971195016826723 
989	 0.971102966698011 
990	 0.97090546084185 
991	 0.971226710646777 
992	 0.971344319545659 
993	 0.971358370968753 
994	 0.971563718740419 
995	 0.971810344933582 
996	 0.971994668525009 
997	 0.972008085910432 
998	 0.971861042612808 
999	 0.971870228718844 
1000	 0.972100429512211 
1001	 0.962562510006437 
1002	 0.962493229943799 
1003	 0.962487474096548 
1004	 0.962506763477585 
1005	 0.962579274154748 
1006	 0.962625822778971 
1007	 0.962699504582333 
1008	 0.962721952536018 
1009	 0.962727641827158 
1010	 0.962720079852117 
1011	 0.962698540132485 
1012	 0.96266408207849 
1013	 0.962583701061945 
1014	 0.962548931734657 
1015	 0.962578316234531 
1016	 0.96247819979741 
1017	 0.962371051536614 
1018	 0.962394157438045 
1019	 0.962353729983437 
1020	 0.962342133165649 
1021	 0.962371470828514 
1022	 0.962450286869079 
1023	 0.962514264894856 
1024	 0.962604507303031 
1025	 0.962692931179898 
1026	 0.962768808634494 
1027	 0.96289591505971 
1028	 0.963044634067906 
1029	 0.963212889940438 
1030	 0.963412543409294 
1031	 0.963546553499917 
1032	 0.963632064450011 
1033	 0.963730028737714 
1034	 0.963884490994206 
1035	 0.96407567395337 
1036	 0.964206039304899 
1037	 0.964351291573641 
1038	 0.964471672944172 
1039	 0.964497576002969 
1040	 0.964607127608423 
1041	 0.964787192282738 
1042	 0.964926065478161 
1043	 0.965057753202098 
1044	 0.965188682859626 
1045	 0.96535890256693 
1046	 0.965538427640221 
1047	 0.965628768217821 
1048	 0.965727234839754 
1049	 0.965830148453836 
1050	 0.965874202861561 
1051	 0.965964143020775 
1052	 0.966043306204927 
1053	 0.96607815144058 
1054	 0.966044532090658 
1055	 0.966047608681672 
1056	 0.966031104659719 
1057	 0.966062732515765 
1058	 0.966161885294252 
1059	 0.966141402721635 
1060	 0.966122454939101 
1061	 0.966153297217803 
1062	 0.966096033841097 
1063	 0.966092382812866 
1064	 0.966132556391299 
1065	 0.966097086198099 
1066	 0.966057327261581 
1067	 0.966017143150784 
1068	 0.965928001922596 
1069	 0.965830091951438 
1070	 0.965765460745922 
1071	 0.96570038368757 
1072	 0.965654483574234 
1073	 0.965648514330249 
1074	 0.965639601104928 
1075	 0.965607445479686 
1076	 0.965566446502415 
1077	 0.965532781794471 
1078	 0.965487076589929 
1079	 0.965430711483791 
1080	 0.965378510840798 
1081	 0.965313062268069 
1082	 0.965257804368698 
1083	 0.965192415179458 
1084	 0.965146419295673 
1085	 0.965121283746546 
1086	 0.965088142947914 
1087	 0.965049322061621 
1088	 0.965048537837788 
1089	 0.965079369280051 
1090	 0.965083007390597 
1091	 0.965067330096634 
1092	 0.965081751140615 
1093	 0.965082092089151 
1094	 0.965053282184543 
1095	 0.96504500408799 
1096	 0.965020707082148 
1097	 0.964953538356407 
1098	 0.964898512686712 
1099	 0.964863511810167 
1100	 0.964818159451069 
1101	 0.96482195006899 
1102	 0.964874064986873 
1103	 0.964867771445403 
1104	 0.964849078473097 
1105	 0.964835517548185 
1106	 0.964810890016096 
1107	 0.964728067607611 
1108	 0.964696172930694 
1109	 0.964706867267604 
1110	 0.964684515635201 
1111	 0.964659818048189 
1112	 0.964644042065845 
1113	 0.964633782896133 
1114	 0.964630484111731 
1115	 0.96458876943489 
1116	 0.964543708733627 
1117	 0.964545984494398 
1118	 0.964535321766861 
1119	 0.964531889222661 
1120	 0.964505324084472 
1121	 0.964489151161623 
1122	 0.964434864253226 
1123	 0.964323884361611 
1124	 0.964254030364124 
1125	 0.964229639922936 
1126	 0.964141038586118 
1127	 0.964058677131538 
1128	 0.963993684398016 
1129	 0.963888248896234 
1130	 0.963780193741087 
1131	 0.963673855393633 
1132	 0.963568247173604 
1133	 0.963468819928106 
1134	 0.963358506509692 
1135	 0.963208271913675 
1136	 0.963042306339893 
1137	 0.962860128398784 
1138	 0.962616648212273 
1139	 0.962395213186797 
1140	 0.962175434915407 
1141	 0.961972502594204 
1142	 0.961750630704691 
1143	 0.96156216479663 
1144	 0.96140948233623 
1145	 0.961211597933793 
1146	 0.960986877271732 
1147	 0.960754945961444 
1148	 0.960473472732829 
1149	 0.96020978532198 
1150	 0.959975772997278 
1151	 0.959733693904661 
1152	 0.959482907812065 
1153	 0.959252056011029 
1154	 0.958971128051935 
1155	 0.958651256044005 
1156	 0.958345559620347 
1157	 0.958018792638664 
1158	 0.957696987972049 
1159	 0.957375899878761 
1160	 0.957071310315197 
1161	 0.956726359373725 
1162	 0.956361727775455 
1163	 0.956027370831002 
1164	 0.955648583390224 
1165	 0.955265492258089 
1166	 0.954937008101499 
1167	 0.954566806946692 
1168	 0.954201381016732 
1169	 0.953841061114897 
1170	 0.95345490379908 
1171	 0.953123625545582 
1172	 0.952816679645453 
1173	 0.952528056374858 
1174	 0.952268394622721 
1175	 0.95204255598874 
1176	 0.951865897996554 
1177	 0.951657202413459 
1178	 0.951449759329243 
1179	 0.951270123887025 
1180	 0.9510938929886 
1181	 0.950870410792218 
1182	 0.95069850215567 
1183	 0.950542743436995 
1184	 0.950340618939885 
1185	 0.950176368596494 
1186	 0.950012716743307 
1187	 0.949844477139809 
1188	 0.949712057351421 
1189	 0.949585942835305 
1190	 0.949495437973575 
1191	 0.94943862541664 
1192	 0.949402658281366 
1193	 0.949407466822153 
1194	 0.949407610704589 
1195	 0.949439422147172 
1196	 0.949443971150109 
1197	 0.949439773766124 
1198	 0.949430114194638 
1199	 0.949405284775104 
1200	 0.949407984532833 
1201	 0.949462208293307 
1202	 0.94949951370209 
1203	 0.949531572920676 
1204	 0.949595125416205 
1205	 0.949647715979956 
1206	 0.949674014006044 
1207	 0.949746259415914 
1208	 0.949844550267374 
1209	 0.949946286636895 
1210	 0.950076232508113 
1211	 0.95018274042368 
1212	 0.950272806326353 
1213	 0.950397324865467 
1214	 0.950508680848509 
1215	 0.950664496188209 
1216	 0.950858319179627 
1217	 0.951073304324893 
1218	 0.951324150146993 
1219	 0.951583221209695 
1220	 0.95183476594888 
1221	 0.952106723411402 
1222	 0.952350791766725 
1223	 0.952593281333901 
1224	 0.952853170960087 
1225	 0.953136073643289 
1226	 0.95338494468549 
1227	 0.953628131837416 
1228	 0.953867892105589 
1229	 0.954091535161636 
1230	 0.95431683529029 
1231	 0.954560912013387 
1232	 0.95476839505459 
1233	 0.954943831295728 
1234	 0.955124640415136 
1235	 0.955276006521858 
1236	 0.95544958251348 
1237	 0.955646490244208 
1238	 0.95582663489687 
1239	 0.956018373755173 
1240	 0.956190061682044 
1241	 0.956348336198692 
1242	 0.956458483848671 
1243	 0.956543403056134 
1244	 0.956573829322102 
1245	 0.956658252589596 
1246	 0.956725542804515 
1247	 0.956823434719467 
1248	 0.956966632293832 
1249	 0.957083090309445 
1250	 0.957193874503131 
1251	 0.957301658372374 
1252	 0.957410163976292 
1253	 0.957517447332754 
1254	 0.957621827583703 
1255	 0.957719009647228 
1256	 0.957837355284161 
1257	 0.957911434767798 
1258	 0.957950525131225 
1259	 0.957992354198745 
1260	 0.95799875072348 
1261	 0.958018386857332 
1262	 0.958023016696761 
1263	 0.9580667573017 
1264	 0.958113523176859 
1265	 0.958176440506678 
1266	 0.958219985697293 
1267	 0.958287960331853 
1268	 0.958305274568106 
1269	 0.958291804909071 
1270	 0.958271752141864 
1271	 0.958231023342383 
1272	 0.958179921678045 
1273	 0.958121495128087 
1274	 0.958037835377832 
1275	 0.9579024632273 
1276	 0.957816574490667 
1277	 0.957736893079166 
1278	 0.957659551903259 
1279	 0.957630316939664 
1280	 0.957562967616432 
1281	 0.957467054581192 
1282	 0.957374893789956 
1283	 0.957258771707899 
1284	 0.957163350314846 
1285	 0.957075883139026 
1286	 0.956995677980949 
1287	 0.956913103153173 
1288	 0.956853287741932 
1289	 0.956753044726249 
1290	 0.956627853707328 
1291	 0.956520161321681 
1292	 0.95640510692933 
1293	 0.956286945160557 
1294	 0.95619392516497 
1295	 0.95605361037479 
1296	 0.955850176081003 
1297	 0.955714738205671 
1298	 0.955582351676513 
1299	 0.955471002686848 
1300	 0.955425183453156 
1301	 0.955339216689382 
1302	 0.955251539922591 
1303	 0.955139073920528 
1304	 0.955008319948944 
1305	 0.954869925654277 
1306	 0.954702780387479 
1307	 0.954542896476588 
1308	 0.954384700913867 
1309	 0.95421991666233 
1310	 0.954054110602928 
1311	 0.953873286080214 
1312	 0.953735931757174 
1313	 0.953611947709943 
1314	 0.953492096034406 
1315	 0.953423002162659 
1316	 0.95328681645714 
1317	 0.953117000400074 
1318	 0.952958727206644 
1319	 0.952764462268469 
1320	 0.952608376524501 
1321	 0.95247084734735 
1322	 0.952335940525641 
1323	 0.952233925119749 
1324	 0.952094388322672 
1325	 0.95193867810324 
1326	 0.95178791062558 
1327	 0.951617345006519 
1328	 0.95145300191028 
1329	 0.951322634634623 
1330	 0.951146795345896 
1331	 0.950932275086762 
1332	 0.950729845721956 
1333	 0.950517074493695 
1334	 0.950292677538451 
1335	 0.950058005067235 
1336	 0.949831179767555 
1337	 0.949581123421257 
1338	 0.949305745529713 
1339	 0.949030324078485 
1340	 0.94874488928424 
1341	 0.948469835226434 
1342	 0.948189819232656 
1343	 0.947906095992847 
1344	 0.947652316271957 
1345	 0.947338620088463 
1346	 0.946991771225847 
1347	 0.946637182508667 
1348	 0.946261418981006 
1349	 0.945861427724484 
1350	 0.945456890219869 
1351	 0.945009034537693 
1352	 0.944518403948119 
1353	 0.944014561533987 
1354	 0.943476732623104 
1355	 0.942936514591972 
1356	 0.942364048672552 
1357	 0.941809104761939 
1358	 0.941216029352997 
1359	 0.940683112543945 
1360	 0.940177313934253 
1361	 0.939705114172533 
1362	 0.939245144043887 
1363	 0.938852646862551 
1364	 0.938481574267217 
1365	 0.938141372912477 
1366	 0.937812571255123 
1367	 0.93751977494638 
1368	 0.937245010949523 
1369	 0.937007056480275 
1370	 0.936718699576082 
1371	 0.936455086898463 
1372	 0.936143578784345 
1373	 0.935783548215488 
1374	 0.935411291564437 
1375	 0.935082069914161 
1376	 0.934607670706872 
1377	 0.934052350053143 
1378	 0.933443891037437 
1379	 0.932716963586748 
1380	 0.931989780707097 
1381	 0.931207993731274 
1382	 0.930425542122181 
1383	 0.929585839045469 
1384	 0.928780733826241 
1385	 0.928021476524078 
1386	 0.927212045089428 
1387	 0.926437214412771 
1388	 0.925591497330371 
1389	 0.924755753173456 
1390	 0.923783605077358 
1391	 0.922748176446258 
1392	 0.921589965669031 
1393	 0.920365342015864 
1394	 0.919030149615456 
1395	 0.917663067496701 
1396	 0.916231139750055 
1397	 0.914795476473388 
1398	 0.91330275819848 
1399	 0.911801286245057 
1400	 0.910322195797091 
1401	 0.908715877361914 
1402	 0.907111731605478 
1403	 0.905274954812346 
1404	 0.903379742691089 
1405	 0.901213872439846 
1406	 0.898853069354247 
1407	 0.896298209649143 
1408	 0.893354843962817 
1409	 0.890618676577831 
1410	 0.887521584349706 
1411	 0.885029450418225 
1412	 0.882537321930126 
1413	 0.880811373423533 
1414	 0.879524490974341 
1415	 0.878793756180097 
1416	 0.878880205970859 
1417	 0.879012126324584 
1418	 0.879806107788941 
1419	 0.880329917176285 
1420	 0.881046471560361 
1421	 0.881498054906188 
1422	 0.881845149147519 
1423	 0.881990342696586 
1424	 0.8819159581193 
1425	 0.881728230177819 
1426	 0.881436921236476 
1427	 0.881032210902286 
1428	 0.880616144113409 
1429	 0.880198987302793 
1430	 0.87977272287111 
1431	 0.879301541159532 
1432	 0.878872444668225 
1433	 0.878456214610451 
1434	 0.878046430514634 
1435	 0.877635949756828 
1436	 0.877253818294238 
1437	 0.876894189994499 
1438	 0.87653534502012 
1439	 0.87619541726719 
1440	 0.87585459308242 
1441	 0.875510845095872 
1442	 0.875180037669032 
1443	 0.874860515463987 
1444	 0.874543743385257 
1445	 0.874228947362453 
1446	 0.873933668397546 
1447	 0.873656278729543 
1448	 0.873370174697053 
1449	 0.873079759325963 
1450	 0.872813531981866 
1451	 0.872542261140944 
1452	 0.872303128946918 
1453	 0.872096520985977 
1454	 0.871902861241114 
1455	 0.871740528264157 
1456	 0.871565770292207 
1457	 0.871406559699509 
1458	 0.871238019810621 
1459	 0.871057782475427 
1460	 0.870879911899503 
1461	 0.870699999789954 
1462	 0.870528202495729 
1463	 0.870350272921115 
1464	 0.87018697561302 
1465	 0.870043538083967 
1466	 0.869892990060453 
1467	 0.869756748618552 
1468	 0.869593726056417 
1469	 0.869430925251516 
1470	 0.869302008630991 
1471	 0.869193239575758 
1472	 0.869110542371963 
1473	 0.869027554969657 
1474	 0.868972282593718 
1475	 0.868889007770247 
1476	 0.86879613758953 
1477	 0.868712572193366 
1478	 0.868635676680538 
1479	 0.868534755910815 
1480	 0.868439864311915 
1481	 0.868308172705836 
1482	 0.868148886419788 
1483	 0.867970713332549 
1484	 0.867766568072293 
1485	 0.867560393933901 
1486	 0.867324630187916 
1487	 0.867105897448607 
1488	 0.866883812463597 
1489	 0.866672368888439 
1490	 0.86644921635309 
1491	 0.866268060566863 
1492	 0.866097170636572 
1493	 0.865965969048024 
1494	 0.865892833480786 
1495	 0.8657991528985 
1496	 0.865707038326916 
1497	 0.865647118425217 
1498	 0.865588796622729 
1499	 0.865559639930726 
1500	 0.865567598186583 
1501	 0.865590386406143 
1502	 0.865620973795667 
1503	 0.865685113053995 
1504	 0.86578699553823 
1505	 0.865899027234239 
1506	 0.866022268453246 
1507	 0.8661808767381 
1508	 0.866367709717177 
1509	 0.86657168902987 
1510	 0.866826450553905 
1511	 0.867062400934251 
1512	 0.86729496671603 
1513	 0.867540274083906 
1514	 0.867789966897674 
1515	 0.86804345337313 
1516	 0.868306070601418 
1517	 0.868574343572739 
1518	 0.868855649451822 
1519	 0.86912218336401 
1520	 0.869381711875024 
1521	 0.869649274946374 
1522	 0.869909607748149 
1523	 0.870181514583582 
1524	 0.870466178221228 
1525	 0.870765736852228 
1526	 0.871086851725973 
1527	 0.871415779824243 
1528	 0.871767326386042 
1529	 0.872151565544832 
1530	 0.872526171492648 
1531	 0.872911956500727 
1532	 0.873291374898239 
1533	 0.873668983561171 
1534	 0.874061130849623 
1535	 0.874454205102332 
1536	 0.87485709958217 
1537	 0.875282289932679 
1538	 0.87568672892058 
1539	 0.876089928423421 
1540	 0.876482633836114 
1541	 0.876863218480522 
1542	 0.877248598808298 
1543	 0.877649932381786 
1544	 0.877994877413807 
1545	 0.878313021519154 
1546	 0.878631167641813 
1547	 0.878923041696525 
1548	 0.879193519652816 
1549	 0.879474813557701 
1550	 0.879702991304645 
1551	 0.87987232020982 
1552	 0.880047193372955 
1553	 0.880205206379755 
1554	 0.880350343809267 
1555	 0.880477673032157 
1556	 0.880596889975365 
1557	 0.880695183524351 
1558	 0.880802601783175 
1559	 0.880914958789188 
1560	 0.88100280723333 
1561	 0.881068174905086 
1562	 0.88115827659263 
1563	 0.881215454244022 
1564	 0.881335034441739 
1565	 0.881510675007052 
1566	 0.881671910331755 
1567	 0.881859362012434 
1568	 0.882038481716966 
1569	 0.88219553473792 
1570	 0.882396443242808 
1571	 0.882636264645324 
1572	 0.882852940483952 
1573	 0.883088214696031 
1574	 0.883310713329551 
1575	 0.883508494545278 
1576	 0.883719454933637 
1577	 0.883944979846627 
1578	 0.884158971241343 
1579	 0.884350639560389 
1580	 0.88457451446955 
1581	 0.88483482627603 
1582	 0.885051334327681 
1583	 0.885276299077213 
1584	 0.885471552481767 
1585	 0.885610965767517 
1586	 0.885771620006757 
1587	 0.88591179658383 
1588	 0.886092321735662 
1589	 0.886281739096194 
1590	 0.886497450004933 
1591	 0.886775304891545 
1592	 0.887016608888158 
1593	 0.887270142153331 
1594	 0.887490846635735 
1595	 0.887679121825244 
1596	 0.887866328618992 
1597	 0.888016526401096 
1598	 0.888199805918933 
1599	 0.888374107876991 
1600	 0.888590390518363 
1601	 0.888850728672829 
1602	 0.889108708431414 
1603	 0.889408391950507 
1604	 0.889675615869919 
1605	 0.889928299387121 
1606	 0.890182211932979 
1607	 0.890426859932734 
1608	 0.890668018356878 
1609	 0.890930228817505 
1610	 0.891146943676038 
1611	 0.891325913875737 
1612	 0.891507928654903 
1613	 0.8916557068737 
1614	 0.891815561644581 
1615	 0.891979058089615 
1616	 0.892147943519694 
1617	 0.89230509272239 
1618	 0.892488256034199 
1619	 0.892721722135868 
1620	 0.89290450929603 
1621	 0.893087694748357 
1622	 0.89324095404443 
1623	 0.893332858854604 
1624	 0.893444852431515 
1625	 0.893550061355767 
1626	 0.893663332440645 
1627	 0.893791093064419 
1628	 0.893900756610852 
1629	 0.893987551381254 
1630	 0.89410094199358 
1631	 0.894232643470337 
1632	 0.89434460375103 
1633	 0.894471814512916 
1634	 0.894581717656985 
1635	 0.894668323377197 
1636	 0.894741536074914 
1637	 0.894813013094379 
1638	 0.894867658702988 
1639	 0.89487843220005 
1640	 0.894919584798969 
1641	 0.894968315691474 
1642	 0.895020918908846 
1643	 0.895104391416015 
1644	 0.895156554307306 
1645	 0.895195072930529 
1646	 0.895221037513429 
1647	 0.895224565591752 
1648	 0.895232301981746 
1649	 0.895260296931581 
1650	 0.895236446190621 
1651	 0.895176659500381 
1652	 0.895110564824007 
1653	 0.89501749285718 
1654	 0.894903798577141 
1655	 0.894793554102828 
1656	 0.894649583432262 
1657	 0.89446468970941 
1658	 0.894255336958926 
1659	 0.894034832794731 
1660	 0.893771369426972 
1661	 0.8934683045916 
1662	 0.893139954083018 
1663	 0.892775041986072 
1664	 0.892375654105092 
1665	 0.891965197549311 
1666	 0.891484207111485 
1667	 0.890967734618367 
1668	 0.890387498279395 
1669	 0.889766701108642 
1670	 0.889032190004721 
1671	 0.888190217568979 
1672	 0.887315091745879 
1673	 0.886337372586024 
1674	 0.885343283799699 
1675	 0.884315298550014 
1676	 0.883283241440954 
1677	 0.88220170365976 
1678	 0.881128068858584 
1679	 0.880055814537655 
1680	 0.878954226261915 
1681	 0.877839474139403 
1682	 0.876688534497188 
1683	 0.875496812860211 
1684	 0.874347590938717 
1685	 0.873144330739163 
1686	 0.872042575259284 
1687	 0.870992222482043 
1688	 0.869980084299938 
1689	 0.869017038789789 
1690	 0.868106953995722 
1691	 0.867237444684665 
1692	 0.866453420591112 
1693	 0.865772546981234 
1694	 0.865074089708404 
1695	 0.864431899406191 
1696	 0.863754517091847 
1697	 0.863071115004946 
1698	 0.862372367600206 
1699	 0.86169284841735 
1700	 0.860993083650432 
1701	 0.860275049099851 
1702	 0.859526981690278 
1703	 0.858760834196274 
1704	 0.857947029951727 
1705	 0.857063103191533 
1706	 0.856242846923939 
1707	 0.855466612963432 
1708	 0.854705700451487 
1709	 0.853964492489756 
1710	 0.853215830737626 
1711	 0.852408062977134 
1712	 0.851607377441501 
1713	 0.8507660063422 
1714	 0.849859743377672 
1715	 0.848958296409962 
1716	 0.847994774305831 
1717	 0.847010066303969 
1718	 0.846006814493587 
1719	 0.844928481449755 
1720	 0.843887852253039 
1721	 0.842863349729656 
1722	 0.841814980525426 
1723	 0.840852772426403 
1724	 0.839911207078838 
1725	 0.839069994639057 
1726	 0.83841809826784 
1727	 0.837879130859479 
1728	 0.837512058258987 
1729	 0.837318454707345 
1730	 0.837283590933958 
1731	 0.837420750961775 
1732	 0.837726063040769 
1733	 0.838139728945915 
1734	 0.838674097656092 
1735	 0.839302203420016 
1736	 0.839976865061862 
1737	 0.840679415759752 
1738	 0.84138027498494 
1739	 0.84200108945934 
1740	 0.842577584446317 
1741	 0.843131205536257 
1742	 0.843658070222696 
1743	 0.844118593756134 
1744	 0.844555958989434 
1745	 0.844932553002351 
1746	 0.84521520711294 
1747	 0.845472547629915 
1748	 0.845697367455812 
1749	 0.845864349693741 
1750	 0.845973424292322 
1751	 0.846059417940032 
1752	 0.846106869470821 
1753	 0.846122936711755 
1754	 0.846100930740481 
1755	 0.846040993964011 
1756	 0.845923648866749 
1757	 0.845773717565164 
1758	 0.845641515167667 
1759	 0.84552845531652 
1760	 0.845475276695619 
1761	 0.845501915675626 
1762	 0.845609921562245 
1763	 0.845795203389571 
1764	 0.846010815582282 
1765	 0.846273868929605 
1766	 0.846621408711141 
1767	 0.847055432529871 
1768	 0.8475524560435 
1769	 0.848091594733692 
1770	 0.84859302402982 
1771	 0.849066849669618 
1772	 0.849545507721757 
1773	 0.850030214541255 
1774	 0.850526603391445 
1775	 0.850949280218648 
1776	 0.851357748048435 
1777	 0.851746588304682 
1778	 0.852022889605249 
1779	 0.852308601271573 
1780	 0.852587159362974 
1781	 0.852788970032663 
1782	 0.853013056093091 
1783	 0.853223376191672 
1784	 0.853364923981514 
1785	 0.853424311544034 
1786	 0.853524068648669 
1787	 0.853590452378452 
1788	 0.853690498362101 
1789	 0.853865680001234 
1790	 0.853980281164235 
1791	 0.854080945258341 
1792	 0.854148788117863 
1793	 0.854159339610891 
1794	 0.8541602773769 
1795	 0.854164806342679 
1796	 0.854140434769942 
1797	 0.85412570579798 
1798	 0.854162364556209 
1799	 0.854197864593734 
1800	 0.854265742788008 
1801	 0.843548757741414 
1802	 0.843940323654231 
1803	 0.844419357031116 
1804	 0.845054518353608 
1805	 0.845793769998266 
1806	 0.846462259373388 
1807	 0.847244456589769 
1808	 0.847883427101974 
1809	 0.848508497310577 
1810	 0.849012716348109 
1811	 0.84942821402098 
1812	 0.849807748333733 
1813	 0.850080278498164 
1814	 0.85037290246293 
1815	 0.850619820873464 
1816	 0.850825462756798 
1817	 0.850969156459376 
1818	 0.851025830395241 
1819	 0.851100370797931 
1820	 0.851107926458389 
1821	 0.851160332596616 
1822	 0.851227720331496 
1823	 0.851290447705733 
1824	 0.851360762920421 
1825	 0.851448316298427 
1826	 0.851542015639166 
1827	 0.851658855225663 
1828	 0.851747375202224 
1829	 0.851855357837646 
1830	 0.851917986621619 
1831	 0.851950421268999 
1832	 0.85196801277584 
1833	 0.851982811265986 
1834	 0.851980424808315 
1835	 0.851954844833947 
1836	 0.851940433086519 
1837	 0.851934007406884 
1838	 0.851898272531611 
1839	 0.851912739766287 
1840	 0.851959976209988 
1841	 0.852010921430449 
1842	 0.852064197556902 
1843	 0.852166683343164 
1844	 0.85230912726311 
1845	 0.852417615897167 
1846	 0.85254496723575 
1847	 0.852657198898554 
1848	 0.852701147562805 
1849	 0.852673347691998 
1850	 0.852666621737076 
1851	 0.852641384824823 
1852	 0.852588901482699 
1853	 0.85250753502637 
1854	 0.852435236944077 
1855	 0.852322327659032 
1856	 0.852130662522624 
1857	 0.851938406316314 
1858	 0.851705409315966 
1859	 0.851431166428022 
1860	 0.851115400980213 
1861	 0.850761509897218 
1862	 0.850389746044314 
1863	 0.849967139929162 
1864	 0.849418684032461 
1865	 0.848797955657663 
1866	 0.848020888911183 
1867	 0.847059624090199 
1868	 0.846008667741503 
1869	 0.844870875084901 
1870	 0.843686085270255 
1871	 0.84236283569601 
1872	 0.841133808801877 
1873	 0.839885198609985 
1874	 0.838646303787227 
1875	 0.837513575015568 
1876	 0.836303439752479 
1877	 0.835181654662885 
1878	 0.834003708623981 
1879	 0.832715752763504 
1880	 0.831487284998632 
1881	 0.830076084412707 
1882	 0.82854045651302 
1883	 0.826911432371235 
1884	 0.825148996602942 
1885	 0.82309128572514 
1886	 0.82095040023671 
1887	 0.818589262588741 
1888	 0.815997007908395 
1889	 0.813483382841493 
1890	 0.810751730297906 
1891	 0.807952995536849 
1892	 0.805127309986788 
1893	 0.802039089077529 
1894	 0.798692481237396 
1895	 0.795372410897283 
1896	 0.791805281964744 
1897	 0.788040043498782 
1898	 0.78456021897594 
1899	 0.780840182098463 
1900	 0.777157950622148 
1901	 0.773548147169153 
1902	 0.769555803872974 
1903	 0.765724793301889 
1904	 0.761970299088678 
1905	 0.758192864450197 
1906	 0.754494165769695 
1907	 0.751190303773952 
1908	 0.747814786178403 
1909	 0.744552026672343 
1910	 0.741437901489729 
1911	 0.738129861255274 
1912	 0.735011615573706 
1913	 0.731892771989078 
1914	 0.728705743329909 
1915	 0.725761807105252 
1916	 0.723030073199221 
1917	 0.720231874515169 
1918	 0.717574833644565 
1919	 0.71510368034934 
1920	 0.712479032421157 
1921	 0.710049738029422 
1922	 0.707674129849936 
1923	 0.705305170127389 
1924	 0.703238524291412 
1925	 0.701198238320251 
1926	 0.699232745347205 
1927	 0.697432080063214 
1928	 0.69562056238278 
1929	 0.693805211074496 
1930	 0.692112541952191 
1931	 0.690493651662106 
1932	 0.688912684469578 
1933	 0.687559809552616 
1934	 0.686263982881569 
1935	 0.685061117797935 
1936	 0.684013358410566 
1937	 0.68300800441588 
1938	 0.682042384872105 
1939	 0.681243201284751 
1940	 0.680547428065722 
1941	 0.679951336159671 
1942	 0.679528734799485 
1943	 0.679193916637015 
1944	 0.678936548061382 
1945	 0.6787749818438 
1946	 0.678684939108929 
1947	 0.678648158293521 
1948	 0.678692000927024 
1949	 0.67880699039152 
1950	 0.678971855386064 
1951	 0.679204844372189 
1952	 0.679488826570717 
1953	 0.679832971318146 
1954	 0.680208595812185 
1955	 0.680662333708095 
1956	 0.681129137935504 
1957	 0.681661764541329 
1958	 0.682288882925955 
1959	 0.682902521049353 
1960	 0.683585917885988 
1961	 0.684296811809499 
1962	 0.685016696294216 
1963	 0.685801206349212 
1964	 0.686682953378299 
1965	 0.687526623005604 
1966	 0.688413877788587 
1967	 0.689285285478773 
1968	 0.690077179989676 
1969	 0.690841226246682 
1970	 0.691564382706199 
1971	 0.692282627130699 
1972	 0.693081959972417 
1973	 0.693851584931842 
1974	 0.694633228717625 
1975	 0.695455697387283 
1976	 0.696250665839611 
1977	 0.697016317396451 
1978	 0.697816169670548 
1979	 0.698629244054694 
1980	 0.699423491413916 
1981	 0.700295472663534 
1982	 0.701119718430832 
1983	 0.701972961666981 
1984	 0.702860556903754 
1985	 0.703666287666864 
1986	 0.704499146288987 
1987	 0.705312005345012 
1988	 0.70607974877506 
1989	 0.706894537387156 
1990	 0.707733151180136 
1991	 0.708550873776511 
1992	 0.709399746393837 
1993	 0.710224657977825 
1994	 0.710951122480514 
1995	 0.711727055527283 
1996	 0.712470717665579 
1997	 0.713212471337648 
1998	 0.714023436448611 
1999	 0.714897820793656 
2000	 0.715728504772871 
2001	 0.716614282998973 
2002	 0.717437978681505 
2003	 0.718223696096976 
2004	 0.719000193954339 
2005	 0.719724771637519 
2006	 0.720475528672377 
2007	 0.721238282470067 
2008	 0.721981565245158 
2009	 0.722708894776509 
2010	 0.723477592027664 
2011	 0.724157797348341 
2012	 0.724825029262109 
2013	 0.725468001604147 
2014	 0.726071426638953 
2015	 0.726676542819985 
2016	 0.7272990911698 
2017	 0.72783988473112 
2018	 0.728391880986528 
2019	 0.728834879246391 
2020	 0.72918571950871 
2021	 0.729484882752878 
2022	 0.729713890961174 
2023	 0.729871833805925 
2024	 0.729998184204743 
2025	 0.730038035711563 
2026	 0.730016994835251 
2027	 0.729941713209939 
2028	 0.729786253953702 
2029	 0.729542564535178 
2030	 0.729250177295643 
2031	 0.728858803291065 
2032	 0.728461130585054 
2033	 0.727993756390897 
2034	 0.727539403017511 
2035	 0.727032573904258 
2036	 0.726567735275084 
2037	 0.726149492736085 
2038	 0.725760329461447 
2039	 0.725456417404587 
2040	 0.725236259742973 
2041	 0.725053864570081 
2042	 0.724887733196163 
2043	 0.724852541786257 
2044	 0.724912551825352 
2045	 0.725034570257259 
2046	 0.725272753475556 
2047	 0.725546635314925 
2048	 0.725863315215665 
2049	 0.726244611104693 
2050	 0.726712194615587 
2051	 0.727210241771591 
2052	 0.727732240846813 
2053	 0.728347109293486 
2054	 0.728963371756196 
2055	 0.729595404168583 
2056	 0.730294742461599 
2057	 0.731032139714519 
2058	 0.731831473561335 
2059	 0.732696133287031 
2060	 0.73358098276259 
2061	 0.734569412722122 
2062	 0.735493941095788 
2063	 0.736389160442468 
2064	 0.737345741605921 
2065	 0.738319626444635 
2066	 0.739256385681314 
2067	 0.740346004421285 
2068	 0.741402806147919 
2069	 0.742453298289583 
2070	 0.743540010120461 
2071	 0.744571474040914 
2072	 0.74557145712664 
2073	 0.746559727832862 
2074	 0.747490507078118 
2075	 0.748475814887851 
2076	 0.749501181968807 
2077	 0.750470037086239 
2078	 0.751506507327753 
2079	 0.75241358439716 
2080	 0.753226459194121 
2081	 0.753999576339325 
2082	 0.754698083944669 
2083	 0.755336710333957 
2084	 0.755992892173518 
2085	 0.756576034460028 
2086	 0.757141325232286 
2087	 0.757680896905725 
2088	 0.75819249918329 
2089	 0.758654506649295 
2090	 0.759118504446387 
2091	 0.759557020619478 
2092	 0.759998814015433 
2093	 0.760430931727823 
2094	 0.760844794076235 
2095	 0.76129856559039 
2096	 0.761665707891964 
2097	 0.761984739125677 
2098	 0.762260521741501 
2099	 0.762494336265291 
2100	 0.762658948392181 
2101	 0.762844198352602 
2102	 0.763009660341131 
2103	 0.763176885537213 
2104	 0.763336374244645 
2105	 0.76348284558328 
2106	 0.763617919970146 
2107	 0.763751885945458 
2108	 0.763866531437934 
2109	 0.763994005933557 
2110	 0.764144836153729 
2111	 0.764255624488511 
2112	 0.764354660101448 
2113	 0.764444832402673 
2114	 0.764500066720738 
2115	 0.764559896758709 
2116	 0.764629223328604 
2117	 0.764672281046119 
2118	 0.76471237480213 
2119	 0.764749055690419 
2120	 0.764761345078663 
2121	 0.764750456299758 
2122	 0.764744312639749 
2123	 0.764750824913449 
2124	 0.764695753039692 
2125	 0.764637846393128 
2126	 0.764516829372521 
2127	 0.764345871633035 
2128	 0.764112229015026 
2129	 0.763821879427555 
2130	 0.763502941545722 
2131	 0.763134872064692 
2132	 0.762708507563292 
2133	 0.762283484326737 
2134	 0.761746586164442 
2135	 0.761050251059345 
2136	 0.760382228344015 
2137	 0.759604978100692 
2138	 0.758716065576486 
2139	 0.757810635543402 
2140	 0.756868259145505 
2141	 0.755837139789256 
2142	 0.754728144552235 
2143	 0.753593161121055 
2144	 0.75237689865179 
2145	 0.751164696794822 
2146	 0.749879872361195 
2147	 0.748654658484924 
2148	 0.747463009713271 
2149	 0.746220367431623 
2150	 0.745016861050471 
2151	 0.743755179135101 
2152	 0.742424224868174 
2153	 0.741084204988816 
2154	 0.739712246553285 
2155	 0.73828326426976 
2156	 0.736903111368467 
2157	 0.735517052883603 
2158	 0.734095054212538 
2159	 0.732730109787039 
2160	 0.731224611053765 
2161	 0.729571694330023 
2162	 0.728042932564817 
2163	 0.726446755588831 
2164	 0.724971923896141 
2165	 0.723602128557214 
2166	 0.722233886210956 
2167	 0.720927854478635 
2168	 0.719613168223349 
2169	 0.718266813170537 
2170	 0.71703834110562 
2171	 0.715782734154161 
2172	 0.714699657537657 
2173	 0.713779829214573 
2174	 0.712919598722488 
2175	 0.712160445050539 
2176	 0.711524106335103 
2177	 0.710884200814407 
2178	 0.710290311159116 
2179	 0.709776789768891 
2180	 0.709311578604871 
2181	 0.708918336710379 
2182	 0.708626925635714 
2183	 0.70833741234122 
2184	 0.708081240882568 
2185	 0.707893729018997 
2186	 0.707743661305154 
2187	 0.707670287583943 
2188	 0.707692075004782 
2189	 0.707721839313149 
2190	 0.707815629979029 
2191	 0.707927206690143 
2192	 0.708063382693588 
2193	 0.708234776071856 
2194	 0.708472302809096 
2195	 0.708689578320275 
2196	 0.708917418105568 
2197	 0.70917281538006 
2198	 0.709410493671015 
2199	 0.709616982056377 
2200	 0.709833478359124 
2201	 0.710061216424119 
2202	 0.710247901619126 
2203	 0.710415968705262 
2204	 0.710567856490663 
2205	 0.710692983740887 
2206	 0.710796655609047 
2207	 0.71087112040472 
2208	 0.710961678595896 
2209	 0.711029697970308 
2210	 0.711102705243632 
2211	 0.711184808154396 
2212	 0.711262151511933 
2213	 0.711361803900423 
2214	 0.711405193407143 
2215	 0.711389803623509 
2216	 0.711426955442195 
2217	 0.711438445654897 
2218	 0.711473437779251 
2219	 0.711597998849759 
2220	 0.711661678960694 
2221	 0.711698135724544 
2222	 0.711708113446062 
2223	 0.711707469408813 
2224	 0.711662079401904 
2225	 0.711687361519758 
2226	 0.711586337050596 
2227	 0.711435622058331 
2228	 0.71125110753653 
2229	 0.711026038896688 
2230	 0.710706082173884 
2231	 0.71038664793851 
2232	 0.710084167975769 
2233	 0.709641779400059 
2234	 0.709152123051571 
2235	 0.708522845165321 
2236	 0.707780808446278 
2237	 0.706949331432025 
2238	 0.70595142006894 
2239	 0.704963436263825 
2240	 0.703931390419998 
2241	 0.702817664170407 
2242	 0.701729376327945 
2243	 0.700426574890448 
2244	 0.698954404875625 
2245	 0.69742870911499 
2246	 0.695708498909689 
2247	 0.694000309465876 
2248	 0.692296859159684 
2249	 0.690462446140801 
2250	 0.688574487573737 
2251	 0.686581217750384 
2252	 0.684358713248863 
2253	 0.682231319330903 
2254	 0.679932861702886 
2255	 0.677618880862837 
2256	 0.675510767634626 
2257	 0.673317869476479 
2258	 0.671288901739177 
2259	 0.669439535521337 
2260	 0.667476381177941 
2261	 0.665479374237806 
2262	 0.663648711052455 
2263	 0.661785170282879 
2264	 0.660152994533711 
2265	 0.658767615537832 
2266	 0.657317650858732 
2267	 0.65597698895137 
2268	 0.654598683619498 
2269	 0.65320158656306 
2270	 0.651894368269476 
2271	 0.650598168064099 
2272	 0.649398172372819 
2273	 0.648335934033718 
2274	 0.647209151373135 
2275	 0.646141699095678 
2276	 0.645020584529668 
2277	 0.643823469374236 
2278	 0.642689065429281 
2279	 0.641558775245222 
2280	 0.640452775048337 
2281	 0.639400061298188 
2282	 0.638321974024628 
2283	 0.637240048891618 
2284	 0.636171021456571 
2285	 0.635027511127095 
2286	 0.633967839088528 
2287	 0.632906601049256 
2288	 0.631867571483137 
2289	 0.630986379143469 
2290	 0.630111359168581 
2291	 0.629263918531549 
2292	 0.628452692227399 
2293	 0.627528037497517 
2294	 0.626566484938587 
2295	 0.625569999256131 
2296	 0.624503259834543 
2297	 0.623437709624422 
2298	 0.622345963078637 
2299	 0.621232362685915 
2300	 0.620069999588091 
2301	 0.618952880591456 
2302	 0.617822129732014 
2303	 0.616735239255445 
2304	 0.615598351440055 
2305	 0.61468243404616 
2306	 0.613751958595928 
2307	 0.61316798582696 
2308	 0.612800200005118 
2309	 0.612719433088432 
2310	 0.612869725428739 
2311	 0.613380023403058 
2312	 0.614325464071138 
2313	 0.615317160369188 
2314	 0.616681624979274 
2315	 0.617974337623506 
2316	 0.619416826853031 
2317	 0.620736519530114 
2318	 0.622169612369302 
2319	 0.623321330192631 
2320	 0.624357019118827 
2321	 0.625170872580154 
2322	 0.625787835216853 
2323	 0.62624887715851 
2324	 0.626449325564098 
2325	 0.626605946596842 
2326	 0.626598844005804 
2327	 0.626517282364554 
2328	 0.626350319739108 
2329	 0.626091189172991 
2330	 0.625724865498605 
2331	 0.625250266229652 
2332	 0.62473114145183 
2333	 0.624165301702251 
2334	 0.6234319081113 
2335	 0.622644935787132 
2336	 0.621695525003707 
2337	 0.620579925360342 
2338	 0.619475428107184 
2339	 0.618280932099248 
2340	 0.617118546103632 
2341	 0.615911152411895 
2342	 0.614556070139406 
2343	 0.613256445165186 
2344	 0.61192170155492 
2345	 0.610581289754279 
2346	 0.609544958650324 
2347	 0.60875352037942 
2348	 0.608258387254534 
2349	 0.608195549094337 
2350	 0.608404279332215 
2351	 0.608834468643351 
2352	 0.60947690550059 
2353	 0.610500270735073 
2354	 0.611740671825176 
2355	 0.613125328182748 
2356	 0.614554177171166 
2357	 0.615955426934137 
2358	 0.61736585132708 
2359	 0.618607400840032 
2360	 0.61976751168097 
2361	 0.620732746459117 
2362	 0.621502528420514 
2363	 0.622095195797139 
2364	 0.622574846824539 
2365	 0.623039104359908 
2366	 0.623361255069289 
2367	 0.623726726797227 
2368	 0.624063476936868 
2369	 0.624238497393201 
2370	 0.624422262606909 
2371	 0.624550678653706 
2372	 0.624666259328256 
2373	 0.624865146532858 
2374	 0.625055167494194 
2375	 0.625179406445172 
2376	 0.625258454799906 
2377	 0.625280215142134 
2378	 0.625230894643277 
2379	 0.625233889664504 
2380	 0.625246477724364 
2381	 0.62518805176674 
2382	 0.625134558961795 
2383	 0.62506756236447 
2384	 0.624950642484532 
2385	 0.624808771895597 
2386	 0.624667664609137 
2387	 0.624493087682877 
2388	 0.624354209374026 
2389	 0.624200646819153 
2390	 0.624095343360247 
2391	 0.623994825302455 
2392	 0.623897399761135 
2393	 0.623861685007644 
2394	 0.623806136531954 
2395	 0.623773278107231 
2396	 0.623715123199764 
2397	 0.623664815143327 
2398	 0.623485079245742 
2399	 0.623187475501356 
2400	 0.622993849094128 
2401	 0.622745162501532 
2402	 0.622634306030835 
2403	 0.622561244076533 
2404	 0.62236695173893 
2405	 0.622187786793583 
2406	 0.62208982135261 
2407	 0.622101132138857 
2408	 0.622169593627536 
2409	 0.622202190206379 
2410	 0.622192042085227 
2411	 0.622042769301532 
2412	 0.621750629485152 
2413	 0.621521981790674 
2414	 0.621252040489194 
2415	 0.620948066108497 
2416	 0.620769200313776 
2417	 0.620549551745489 
2418	 0.620417335710413 
2419	 0.620267717880246 
2420	 0.620037814788161 
2421	 0.619968066679868 
2422	 0.619752677035186 
2423	 0.619413113129143 
2424	 0.619063470869681 
2425	 0.61861522526915 
2426	 0.618259225258364 
2427	 0.617832317587314 
2428	 0.617565695049334 
2429	 0.6175879589426 
2430	 0.617198684811552 
2431	 0.616613177055435 
2432	 0.616182090629166 
2433	 0.615430905953013 
2434	 0.614720705806485 
2435	 0.61429630745273 
2436	 0.613790508252641 
2437	 0.613410544705205 
2438	 0.612972497294774 
2439	 0.61236184249883 
2440	 0.611803680000632 
2441	 0.611036295948953 
2442	 0.610017219458247 
2443	 0.609129807245411 
2444	 0.608194934434284 
2445	 0.606993371875753 
2446	 0.606095378558821 
2447	 0.605503171642524 
2448	 0.604866136491301 
2449	 0.604152940800622 
2450	 0.603320312356507 
2451	 0.602478678500881 
2452	 0.601555982774211 
2453	 0.600508825537812 
2454	 0.599465964276297 
2455	 0.598444225739237 
2456	 0.597415838419436 
2457	 0.596500365514697 
2458	 0.595726904596695 
2459	 0.595067350388682 
2460	 0.594390979343854 
2461	 0.593571702210967 
2462	 0.592837586749678 
2463	 0.59201307064286 
2464	 0.59094534688033 
2465	 0.590103787302294 
2466	 0.589412871563949 
2467	 0.588316727659098 
2468	 0.587339378011772 
2469	 0.586706061683697 
2470	 0.585789301220971 
2471	 0.58513992835007 
2472	 0.584646607026521 
2473	 0.583785761901327 
2474	 0.583233021781657 
2475	 0.58281158759549 
2476	 0.582291926023265 
2477	 0.581721822860116 
2478	 0.580889612590957 
2479	 0.579991471817922 
2480	 0.579418224230906 
2481	 0.578879831794587 
2482	 0.57852612067295 
2483	 0.577981628465787 
2484	 0.577493767234327 
2485	 0.577027322291555 
2486	 0.576699300334986 
2487	 0.576541143285034 
2488	 0.576114124907854 
2489	 0.575463667167926 
2490	 0.574969419888076 
2491	 0.57404319537398 
2492	 0.572882511837845 
2493	 0.572546707017101 
2494	 0.572388086697593 
2495	 0.572270401198397 
2496	 0.572403083256742 
2497	 0.57170872132868 
2498	 0.570621575494199 
2499	 0.569892588439829 
2500	 0.569398899166646 
