Wavelength	ProbetaAcolman00015.asd
350	 0.870143589551483 
351	 0.885950534620839 
352	 0.887403612193188 
353	 0.86986661286812 
354	 0.883462773039524 
355	 0.865875001106895 
356	 0.84380134990333 
357	 0.847271152181332 
358	 0.860518921603379 
359	 0.856106222627095 
360	 0.841131933592729 
361	 0.838811555309624 
362	 0.841464037891848 
363	 0.84863732268237 
364	 0.85235739318967 
365	 0.834855331193926 
366	 0.828461609476434 
367	 0.831454259700402 
368	 0.834697624906654 
369	 0.834815750378354 
370	 0.836499585096835 
371	 0.836296706232527 
372	 0.827176395762779 
373	 0.809325265916911 
374	 0.805551740908262 
375	 0.818680709656902 
376	 0.822549392669819 
377	 0.821315399784322 
378	 0.815799374847466 
379	 0.80817105915059 
380	 0.803684537928535 
381	 0.803292483390929 
382	 0.807807630129894 
383	 0.815362857200932 
384	 0.801571435949791 
385	 0.794707558934776 
386	 0.803792654068055 
387	 0.802993924516334 
388	 0.80128516236427 
389	 0.79905338742984 
390	 0.795595016954357 
391	 0.792317293068326 
392	 0.790990725117918 
393	 0.792122186634061 
394	 0.794794096381048 
395	 0.792777637533157 
396	 0.792006578882427 
397	 0.794000110992936 
398	 0.790702947312721 
399	 0.791463105514583 
400	 0.794580029952834 
401	 0.795796636705987 
402	 0.793096093779007 
403	 0.793792987751918 
404	 0.798561092573415 
405	 0.803104162939442 
406	 0.807196818023237 
407	 0.809638125001669 
408	 0.810970897824549 
409	 0.814947041047531 
410	 0.81912520769651 
411	 0.823381082578887 
412	 0.827806932344649 
413	 0.829901783577363 
414	 0.832997628608924 
415	 0.837400862249804 
416	 0.8407376461045 
417	 0.846251675843778 
418	 0.851022607914301 
419	 0.853026747292594 
420	 0.854284562039823 
421	 0.855794571126959 
422	 0.85807352198555 
423	 0.861029237921744 
424	 0.86288258586256 
425	 0.864836258437339 
426	 0.867213288267948 
427	 0.869165161620755 
428	 0.870429644464178 
429	 0.871760737712154 
430	 0.873419526079935 
431	 0.873542331989055 
432	 0.873387405297727 
433	 0.874172048755604 
434	 0.876547714532357 
435	 0.876848115811291 
436	 0.877045460388237 
437	 0.878018836997611 
438	 0.878120142917827 
439	 0.877784955291845 
440	 0.877615245729614 
441	 0.877941324526476 
442	 0.877757206900147 
443	 0.877603065361407 
444	 0.877646920183981 
445	 0.877683064751803 
446	 0.876793880610782 
447	 0.876090979779679 
448	 0.876155480387261 
449	 0.875817190410516 
450	 0.875425385619353 
451	 0.875136771132476 
452	 0.874914179034354 
453	 0.873805065980631 
454	 0.873279846956977 
455	 0.873395796127707 
456	 0.872577748472393 
457	 0.871066104985128 
458	 0.869911468554964 
459	 0.869643010904021 
460	 0.868786029646006 
461	 0.868056213855136 
462	 0.867518471169267 
463	 0.866868400922192 
464	 0.86575768775132 
465	 0.865072568091615 
466	 0.864930908330327 
467	 0.864145442742736 
468	 0.863095352234418 
469	 0.862084647091207 
470	 0.861416795819799 
471	 0.861475912959953 
472	 0.861106080457506 
473	 0.860255879419245 
474	 0.859747567292918 
475	 0.859568385841887 
476	 0.859342219895076 
477	 0.858874256716294 
478	 0.858466110307396 
479	 0.858217410831561 
480	 0.858098584936943 
481	 0.858014803289758 
482	 0.857906351671976 
483	 0.8578312022225 
484	 0.857874060491312 
485	 0.858131930389528 
486	 0.858281160840618 
487	 0.858711737025181 
488	 0.85961663671677 
489	 0.860119610443686 
490	 0.860797884091162 
491	 0.861595200416861 
492	 0.862157241806491 
493	 0.86299584592491 
494	 0.863916595936971 
495	 0.864817599696718 
496	 0.865873403463677 
497	 0.867123138788816 
498	 0.868477895333397 
499	 0.869842766005188 
500	 0.871289453904692 
501	 0.8729066828572 
502	 0.874536346282788 
503	 0.875850785618151 
504	 0.877410283083078 
505	 0.879066471182882 
506	 0.880696553294773 
507	 0.882580122084555 
508	 0.884351519719673 
509	 0.886092948205639 
510	 0.888035283417363 
511	 0.889980887052109 
512	 0.891844757217679 
513	 0.89369229072858 
514	 0.895774842162959 
515	 0.897513469210944 
516	 0.899177869140068 
517	 0.901065011193284 
518	 0.902749036341212 
519	 0.904537568311439 
520	 0.906351491263622 
521	 0.907882872457543 
522	 0.909555662130986 
523	 0.91123213189835 
524	 0.912781312790873 
525	 0.914226627328835 
526	 0.915776411034861 
527	 0.917293188195326 
528	 0.918587398326782 
529	 0.919921604318799 
530	 0.921264892046275 
531	 0.922573693346985 
532	 0.923807319614834 
533	 0.924886405249152 
534	 0.925935264256088 
535	 0.927035969678872 
536	 0.928008753708158 
537	 0.929024396426008 
538	 0.930093331967248 
539	 0.931136974402307 
540	 0.932145302672632 
541	 0.933102815356042 
542	 0.933987044663885 
543	 0.934751246537595 
544	 0.935529274870402 
545	 0.936345699479235 
546	 0.937183357485677 
547	 0.93802594947636 
548	 0.938835670004503 
549	 0.939591857285457 
550	 0.940298364014417 
551	 0.941165760218105 
552	 0.941997196157857 
553	 0.942669789571884 
554	 0.943444424031517 
555	 0.94417893288448 
556	 0.944923126914551 
557	 0.945769418017705 
558	 0.946454137153062 
559	 0.947133712576248 
560	 0.947851314741682 
561	 0.94844378944311 
562	 0.949149360357126 
563	 0.949863488881687 
564	 0.950431771134317 
565	 0.950865292836671 
566	 0.951254073907251 
567	 0.951680298270063 
568	 0.952204447379569 
569	 0.952719424949956 
570	 0.953248547862835 
571	 0.953789691660799 
572	 0.954220901269677 
573	 0.954772614260319 
574	 0.955322215355227 
575	 0.955681752527917 
576	 0.956151878686177 
577	 0.956652937015082 
578	 0.957141178482886 
579	 0.957642249409538 
580	 0.95814383754086 
581	 0.958562964935886 
582	 0.958892967436403 
583	 0.959402667249708 
584	 0.959950074408911 
585	 0.960385741547469 
586	 0.960634308165224 
587	 0.961331447558461 
588	 0.961893753095348 
589	 0.962185759898302 
590	 0.963042281117913 
591	 0.96361397007167 
592	 0.963987081936767 
593	 0.964496421152413 
594	 0.965252808894286 
595	 0.965814133817983 
596	 0.966179036791183 
597	 0.966736579598122 
598	 0.967453580591584 
599	 0.96794958143674 
600	 0.968167430087865 
601	 0.969003115685771 
602	 0.96971365845602 
603	 0.970104025697238 
604	 0.970317676209124 
605	 0.971044557973515 
606	 0.971725993015167 
607	 0.972106468789644 
608	 0.972434793385427 
609	 0.973044627149306 
610	 0.973675770207522 
611	 0.97405638325329 
612	 0.974381700741122 
613	 0.974988713020453 
614	 0.975664979735944 
615	 0.97590942941989 
616	 0.976187417045734 
617	 0.976738608193638 
618	 0.977458272645094 
619	 0.977682395489254 
620	 0.977987446704358 
621	 0.978509744026573 
622	 0.979150151611101 
623	 0.979442287018851 
624	 0.97969693366379 
625	 0.980115916432454 
626	 0.98073663050521 
627	 0.98111175989171 
628	 0.98137274771578 
629	 0.981727186583634 
630	 0.982312958245749 
631	 0.982667135168018 
632	 0.982839449158075 
633	 0.98311763603086 
634	 0.983620846024777 
635	 0.984074533261685 
636	 0.984364988338386 
637	 0.984622324787803 
638	 0.985025093404599 
639	 0.985419965911581 
640	 0.98566799656737 
641	 0.985966807607394 
642	 0.986296312442312 
643	 0.986674366319873 
644	 0.987107658054522 
645	 0.987290278983899 
646	 0.987468693682949 
647	 0.98781171053452 
648	 0.988263162036896 
649	 0.988498581996921 
650	 0.988581283961922 
651	 0.988727619932202 
652	 0.989219274197482 
653	 0.989549898671664 
654	 0.989653507814994 
655	 0.989840725643714 
656	 0.990155111456748 
657	 0.990476759224047 
658	 0.990748137787386 
659	 0.991131688724308 
660	 0.991318486142646 
661	 0.991423254320276 
662	 0.991666706384253 
663	 0.991891465392302 
664	 0.992097191413677 
665	 0.992354851092094 
666	 0.992785958597867 
667	 0.993212143461683 
668	 0.99348317712857 
669	 0.993577325079107 
670	 0.993751497396966 
671	 0.994033117719485 
672	 0.994323019412106 
673	 0.994501408417114 
674	 0.994795656131293 
675	 0.995088843558738 
676	 0.995334786888537 
677	 0.995606008168225 
678	 0.995774461919347 
679	 0.995946583815694 
680	 0.996204755343407 
681	 0.996375036088508 
682	 0.996658213283911 
683	 0.997017193569274 
684	 0.997299912453311 
685	 0.997601505059885 
686	 0.997806082893305 
687	 0.99792764324188 
688	 0.998184491728888 
689	 0.998457951628368 
690	 0.998697469445983 
691	 0.998907796221259 
692	 0.99922860164197 
693	 0.999522236151445 
694	 0.999754370331326 
695	 0.999972287659423 
696	 1.00029644778196 
697	 1.00062349658743 
698	 1.00086644317241 
699	 1.00100210918858 
700	 1.00127314111629 
701	 1.00159554184719 
702	 1.00183377899541 
703	 1.00205142922785 
704	 1.00231204841736 
705	 1.00259741855992 
706	 1.00283206395657 
707	 1.00297505774605 
708	 1.00317283522131 
709	 1.00346268389496 
710	 1.00366261661382 
711	 1.00382578371208 
712	 1.00405973185233 
713	 1.00438607152526 
714	 1.00440142358825 
715	 1.00452614916938 
716	 1.00480614213777 
717	 1.00501257456029 
718	 1.00521021796103 
719	 1.00539106421053 
720	 1.00555533740145 
721	 1.00572796510057 
722	 1.0059142007653 
723	 1.00604281320406 
724	 1.00608449643052 
725	 1.0062586421299 
726	 1.00646936801962 
727	 1.00669249700935 
728	 1.00694562292916 
729	 1.00708141534831 
730	 1.00719727309595 
731	 1.00735964789164 
732	 1.00752909736858 
733	 1.00769766795502 
734	 1.00785264808977 
735	 1.00799867459633 
736	 1.00820473641568 
737	 1.00840911321299 
738	 1.00857356778803 
739	 1.00868953853598 
740	 1.00885755669558 
741	 1.00893530720629 
742	 1.00892992847331 
743	 1.00910617100502 
744	 1.00947121244007 
745	 1.00968418772443 
746	 1.0095766708485 
747	 1.00988164607468 
748	 1.01012853574088 
749	 1.01032972611454 
750	 1.01071315615072 
751	 1.01083809002244 
752	 1.0108958702731 
753	 1.01098485787342 
754	 1.01099965207414 
755	 1.01125245437687 
756	 1.01153287376304 
757	 1.01163636442944 
758	 1.01174303633284 
759	 1.01179780508305 
760	 1.01191188485786 
761	 1.01220864291498 
762	 1.01240415950129 
763	 1.01253296918204 
764	 1.01264172290014 
765	 1.01276282696417 
766	 1.01291274617496 
767	 1.0131375590861 
768	 1.01341606176439 
769	 1.01356673597805 
770	 1.01368990174165 
771	 1.01383193178075 
772	 1.01401876452469 
773	 1.01427585341841 
774	 1.01443400415892 
775	 1.01453015379425 
776	 1.01474966768628 
777	 1.01485914701002 
778	 1.01493316450105 
779	 1.01506862647682 
780	 1.01532353596553 
781	 1.01553582948036 
782	 1.01569363616991 
783	 1.01581164262067 
784	 1.01580155671377 
785	 1.0159240550427 
786	 1.01617741188287 
787	 1.01639972756297 
788	 1.01651805373874 
789	 1.01668870029215 
790	 1.0169392590663 
791	 1.01712007816191 
792	 1.01717115818515 
793	 1.01721610904263 
794	 1.01734501198913 
795	 1.01746399090102 
796	 1.01763526290621 
797	 1.01775574522917 
798	 1.01775171905883 
799	 1.01798607781194 
800	 1.01816992230458 
801	 1.01825237662591 
802	 1.01838112587585 
803	 1.01850496583382 
804	 1.01861828842578 
805	 1.01874362378996 
806	 1.01893737886609 
807	 1.01898056168885 
808	 1.01900576197763 
809	 1.01916025296137 
810	 1.01936547565815 
811	 1.01950213964294 
812	 1.01960191019834 
813	 1.01976074644408 
814	 1.01999459134072 
815	 1.0200941027077 
816	 1.02009908463272 
817	 1.02026024286122 
818	 1.02043822819308 
819	 1.02056442057193 
820	 1.02061229836545 
821	 1.02060520071799 
822	 1.02073393135893 
823	 1.02088866719313 
824	 1.02094005923761 
825	 1.02096226086666 
826	 1.02109064572477 
827	 1.02124569419619 
828	 1.02129148684735 
829	 1.02140911644514 
830	 1.02157520186866 
831	 1.02174232828701 
832	 1.02186182397721 
833	 1.02199198615821 
834	 1.02212305675172 
835	 1.02221248725702 
836	 1.02218709297024 
837	 1.0221467318922 
838	 1.02220708447824 
839	 1.02238058033562 
840	 1.02240401702147 
841	 1.02236824388425 
842	 1.0223226213766 
843	 1.02231113859266 
844	 1.02239146495659 
845	 1.0226029537185 
846	 1.02283341293616 
847	 1.02289563080365 
848	 1.02294338330433 
849	 1.02301112217808 
850	 1.02306305652469 
851	 1.02300353028629 
852	 1.02301967798314 
853	 1.02306410451808 
854	 1.02309361944985 
855	 1.02318695044129 
856	 1.02322660590892 
857	 1.0232487687688 
858	 1.0233352396426 
859	 1.02356599430759 
860	 1.02356905526316 
861	 1.02347942039782 
862	 1.02363142221041 
863	 1.02380463890355 
864	 1.02390922917847 
865	 1.02393297497364 
866	 1.02392881008558 
867	 1.02390940679277 
868	 1.02393554161431 
869	 1.02401483270798 
870	 1.02407663029658 
871	 1.02401885166554 
872	 1.02401209220304 
873	 1.02414500068849 
874	 1.02418922710713 
875	 1.0243071018052 
876	 1.0243846050956 
877	 1.02431592364893 
878	 1.02430376565547 
879	 1.02447821213209 
880	 1.02465583886236 
881	 1.02457048936994 
882	 1.02439018111353 
883	 1.02443616733869 
884	 1.02460570988066 
885	 1.02452371796258 
886	 1.02449090803642 
887	 1.02446597133381 
888	 1.02446034635007 
889	 1.02456832320129 
890	 1.02455228590103 
891	 1.02455533054961 
892	 1.02463661173386 
893	 1.02459885447671 
894	 1.02453630938027 
895	 1.02454909874095 
896	 1.02464200090921 
897	 1.02458767584286 
898	 1.02437662281267 
899	 1.02419219111715 
900	 1.02421623657899 
901	 1.02435372770147 
902	 1.02442594363568 
903	 1.02436956409848 
904	 1.02424374406972 
905	 1.02433768841195 
906	 1.02441561998857 
907	 1.02442689544733 
908	 1.02446137310158 
909	 1.0244056310475 
910	 1.02436444899891 
911	 1.0243970868735 
912	 1.02448101754975 
913	 1.02447559599793 
914	 1.02454682664317 
915	 1.02468299070166 
916	 1.02459301731331 
917	 1.02465023500298 
918	 1.02478723300568 
919	 1.02485336103504 
920	 1.02472650008985 
921	 1.02475825510313 
922	 1.02483704798183 
923	 1.02483971120055 
924	 1.0249528388924 
925	 1.0249662284482 
926	 1.02493982208367 
927	 1.02495525793856 
928	 1.02483598246584 
929	 1.02483817766031 
930	 1.02498217490544 
931	 1.02514137006655 
932	 1.02505793775034 
933	 1.02513992307185 
934	 1.02533132916294 
935	 1.02536890913927 
936	 1.02542838129796 
937	 1.02555131588223 
938	 1.02564295130852 
939	 1.02557424185324 
940	 1.02559984462271 
941	 1.02571808850082 
942	 1.02582595821965 
943	 1.02578889234035 
944	 1.02577143511395 
945	 1.02583644308811 
946	 1.02587705508063 
947	 1.02567203435423 
948	 1.02554341899432 
949	 1.02551629141362 
950	 1.02548623088231 
951	 1.0252863820089 
952	 1.02539042121254 
953	 1.02546152265374 
954	 1.0253295091973 
955	 1.02527721233214 
956	 1.02519415182082 
957	 1.02496190640978 
958	 1.02459936891228 
959	 1.02434922016214 
960	 1.02412862192332 
961	 1.02396679873059 
962	 1.0238781566438 
963	 1.02381011325582 
964	 1.02368150064084 
965	 1.02365334467312 
966	 1.02380674222352 
967	 1.02390511292789 
968	 1.02401352358595 
969	 1.02408082340304 
970	 1.02413200835424 
971	 1.02444587071307 
972	 1.02472237427816 
973	 1.02486298264873 
974	 1.02489001170395 
975	 1.02495444273769 
976	 1.02502200797209 
977	 1.02500755735444 
978	 1.02489752627474 
979	 1.02493384388943 
980	 1.02505337933626 
981	 1.025118504795 
982	 1.0250808023563 
983	 1.02528403797799 
984	 1.02520147957867 
985	 1.0251036388688 
986	 1.02531626723044 
987	 1.02535997826358 
988	 1.02541630561445 
989	 1.02541922273292 
990	 1.02533160081571 
991	 1.0254938171823 
992	 1.02559588309887 
993	 1.02555632230491 
994	 1.02546196954049 
995	 1.02562227234864 
996	 1.02580182530545 
997	 1.02580884136083 
998	 1.02561858937355 
999	 1.02563084933084 
1000	 1.02585691011239 
1001	 1.02519954427487 
1002	 1.02521446853747 
1003	 1.02523814340714 
1004	 1.02526752543763 
1005	 1.02535834384441 
1006	 1.02538849322953 
1007	 1.02538283921777 
1008	 1.02539729011937 
1009	 1.02543794617104 
1010	 1.02542877716578 
1011	 1.02537791224497 
1012	 1.02536160622843 
1013	 1.02532167444382 
1014	 1.02530296968547 
1015	 1.02536447970594 
1016	 1.02532149768818 
1017	 1.02522727199765 
1018	 1.02523332243492 
1019	 1.02517993046086 
1020	 1.02515615880107 
1021	 1.02516377148417 
1022	 1.02520703338453 
1023	 1.02523316032494 
1024	 1.02529326596093 
1025	 1.02531590810373 
1026	 1.02531442590234 
1027	 1.02533163457175 
1028	 1.0253142534842 
1029	 1.02535325991305 
1030	 1.02547220658405 
1031	 1.025532533612 
1032	 1.02557665457767 
1033	 1.02562130525806 
1034	 1.02568819054162 
1035	 1.02576808474497 
1036	 1.02581775828585 
1037	 1.02590850964019 
1038	 1.02596876558516 
1039	 1.02596342029035 
1040	 1.02599007394633 
1041	 1.02602779076231 
1042	 1.02606790782613 
1043	 1.02610527607864 
1044	 1.02615090878259 
1045	 1.02617685482007 
1046	 1.02625769391954 
1047	 1.02628175314032 
1048	 1.02629973246205 
1049	 1.02635976664841 
1050	 1.02636584074396 
1051	 1.02642529711445 
1052	 1.02644181565272 
1053	 1.02646731916919 
1054	 1.02651212938697 
1055	 1.02654793649205 
1056	 1.02654923508412 
1057	 1.02660915633031 
1058	 1.02670925101532 
1059	 1.02677184464486 
1060	 1.02681498213004 
1061	 1.02688872980614 
1062	 1.02693908527768 
1063	 1.02699211915169 
1064	 1.027094331832 
1065	 1.02712580660337 
1066	 1.02716577250136 
1067	 1.02721596232698 
1068	 1.02716508847853 
1069	 1.02714250002 
1070	 1.02713934123379 
1071	 1.02712358893057 
1072	 1.0270742206311 
1073	 1.0271689062486 
1074	 1.02726307779417 
1075	 1.0272862942705 
1076	 1.02734951163106 
1077	 1.02738624147828 
1078	 1.0273676906696 
1079	 1.02734083000855 
1080	 1.02731707341865 
1081	 1.02728293130687 
1082	 1.02729688856665 
1083	 1.02733101655534 
1084	 1.02736257544803 
1085	 1.02738515552756 
1086	 1.02741015994525 
1087	 1.02740862030748 
1088	 1.02747659485931 
1089	 1.02755182142921 
1090	 1.02756898742828 
1091	 1.02756989347466 
1092	 1.02752106971434 
1093	 1.02748818341186 
1094	 1.02752836671433 
1095	 1.02754748980955 
1096	 1.02756958648715 
1097	 1.02759249588779 
1098	 1.02755979687964 
1099	 1.0275061211051 
1100	 1.02747298841717 
1101	 1.02746867176137 
1102	 1.02747994479725 
1103	 1.02746305228673 
1104	 1.02746535653829 
1105	 1.0274485075252 
1106	 1.02740148550012 
1107	 1.02731257257224 
1108	 1.02725010168803 
1109	 1.02725449618708 
1110	 1.02723068901252 
1111	 1.02718253358015 
1112	 1.02716363631425 
1113	 1.02712976296484 
1114	 1.02709297167793 
1115	 1.02706635911124 
1116	 1.02700566659558 
1117	 1.02695795790159 
1118	 1.02693477726569 
1119	 1.02692965164626 
1120	 1.02688051975152 
1121	 1.02683824319423 
1122	 1.02681282488388 
1123	 1.02668603229455 
1124	 1.02660477425465 
1125	 1.02659533864862 
1126	 1.02645545484514 
1127	 1.02629670231031 
1128	 1.02615992860484 
1129	 1.02598300810696 
1130	 1.02584001240494 
1131	 1.02568441119824 
1132	 1.0255165731286 
1133	 1.02537056817646 
1134	 1.02518137669891 
1135	 1.02494537389162 
1136	 1.02468249478945 
1137	 1.02442058010626 
1138	 1.02409344597266 
1139	 1.02379387629072 
1140	 1.0235215902026 
1141	 1.0232378334983 
1142	 1.02292044857856 
1143	 1.02259871487918 
1144	 1.02228336639197 
1145	 1.02192616476758 
1146	 1.02156619076249 
1147	 1.02122135627039 
1148	 1.02082014814035 
1149	 1.02044013975801 
1150	 1.02009955563963 
1151	 1.0197324157905 
1152	 1.01934926836798 
1153	 1.01900047504735 
1154	 1.01858621266067 
1155	 1.01808790462571 
1156	 1.01763411649382 
1157	 1.01718365046665 
1158	 1.01673012746625 
1159	 1.01627688834431 
1160	 1.01584993825016 
1161	 1.01539412473591 
1162	 1.01488430946069 
1163	 1.01440650728503 
1164	 1.01389676967352 
1165	 1.01336504201191 
1166	 1.01290649053261 
1167	 1.01243657930861 
1168	 1.01198684183418 
1169	 1.011545210422 
1170	 1.0111076440983 
1171	 1.01069502673133 
1172	 1.01029232934868 
1173	 1.00990923427824 
1174	 1.00956167033479 
1175	 1.00922708982324 
1176	 1.0089023217258 
1177	 1.00859742056911 
1178	 1.00831637740849 
1179	 1.0080334383843 
1180	 1.00779962289904 
1181	 1.00754799162799 
1182	 1.00729895500734 
1183	 1.00705657733956 
1184	 1.00676655495521 
1185	 1.00650128021702 
1186	 1.00624110471714 
1187	 1.00597530702309 
1188	 1.00573768227377 
1189	 1.00550481750729 
1190	 1.00530737915029 
1191	 1.00511948902034 
1192	 1.00498899948445 
1193	 1.00491910166256 
1194	 1.00483600430995 
1195	 1.00479610037864 
1196	 1.00474094611273 
1197	 1.00466301903461 
1198	 1.00461934909392 
1199	 1.00458182931569 
1200	 1.00455342218365 
1201	 1.0045812570692 
1202	 1.00457535355167 
1203	 1.00456538341518 
1204	 1.00459762140516 
1205	 1.00462124245114 
1206	 1.0046278757442 
1207	 1.00467565166801 
1208	 1.0047563961522 
1209	 1.00482941248017 
1210	 1.00488531948974 
1211	 1.0049989995099 
1212	 1.00512443767146 
1213	 1.00530018569085 
1214	 1.00553813750247 
1215	 1.00579617349473 
1216	 1.00608124037813 
1217	 1.00639083769948 
1218	 1.00674167391985 
1219	 1.00709560028129 
1220	 1.00746666465807 
1221	 1.00788753137225 
1222	 1.00829385686602 
1223	 1.00872128925259 
1224	 1.00916382948218 
1225	 1.00964042042578 
1226	 1.01006832840523 
1227	 1.01049796714408 
1228	 1.01090830981857 
1229	 1.01127422618187 
1230	 1.01166813127089 
1231	 1.01211657732229 
1232	 1.01247791462877 
1233	 1.01280171892789 
1234	 1.01310446460566 
1235	 1.01332857516143 
1236	 1.01357819009892 
1237	 1.01383708895608 
1238	 1.01408363572037 
1239	 1.01431460740587 
1240	 1.01456169072252 
1241	 1.01479540994558 
1242	 1.01498277199915 
1243	 1.01515407442341 
1244	 1.0152855401217 
1245	 1.01544837125082 
1246	 1.01560419974308 
1247	 1.015756904598 
1248	 1.01593833558189 
1249	 1.01607289022791 
1250	 1.01616491039705 
1251	 1.01627328531908 
1252	 1.01636794774533 
1253	 1.01647294943182 
1254	 1.0166121618389 
1255	 1.01669567668028 
1256	 1.01675619809025 
1257	 1.01680214342487 
1258	 1.01680311371406 
1259	 1.01680789214577 
1260	 1.0168099528028 
1261	 1.01680580339541 
1262	 1.01678587987351 
1263	 1.01675906928877 
1264	 1.01675158200049 
1265	 1.01675700401721 
1266	 1.01673763986221 
1267	 1.01672608930214 
1268	 1.0166886056331 
1269	 1.01661010950104 
1270	 1.01656825063569 
1271	 1.01653643227867 
1272	 1.01649876984963 
1273	 1.01648671849938 
1274	 1.01643935250731 
1275	 1.01634249416681 
1276	 1.0162983666014 
1277	 1.01628306322356 
1278	 1.01623764633878 
1279	 1.01622228689093 
1280	 1.01617334836877 
1281	 1.0160404906741 
1282	 1.0159757441773 
1283	 1.0159300542265 
1284	 1.01590694566778 
1285	 1.01591110297608 
1286	 1.01597337938345 
1287	 1.01597666214026 
1288	 1.01597881330741 
1289	 1.01596719486319 
1290	 1.01592904297189 
1291	 1.01590123385467 
1292	 1.01588307600434 
1293	 1.01584126319561 
1294	 1.01579398361294 
1295	 1.01572366377107 
1296	 1.01560959307425 
1297	 1.01553996983276 
1298	 1.01547879484597 
1299	 1.01541297988391 
1300	 1.01537718291513 
1301	 1.01532054981791 
1302	 1.01525468120412 
1303	 1.01517053709188 
1304	 1.01507921065154 
1305	 1.01497836227007 
1306	 1.01485653560082 
1307	 1.01472809388908 
1308	 1.01458892834781 
1309	 1.01445773813313 
1310	 1.01430366347033 
1311	 1.01413232928374 
1312	 1.01396172099999 
1313	 1.01377673122135 
1314	 1.0136083350349 
1315	 1.01343696662882 
1316	 1.01327934554901 
1317	 1.01314348155931 
1318	 1.01298505159079 
1319	 1.01281698804004 
1320	 1.01266156875682 
1321	 1.01249231958619 
1322	 1.0123473407946 
1323	 1.012245567251 
1324	 1.0120989759854 
1325	 1.01194832419414 
1326	 1.01177964287912 
1327	 1.01155832286499 
1328	 1.01137504409709 
1329	 1.01123338200883 
1330	 1.0110416957952 
1331	 1.01082999375765 
1332	 1.01062675598047 
1333	 1.01041717752107 
1334	 1.01017392858691 
1335	 1.00990934886435 
1336	 1.00965267554053 
1337	 1.00936035549513 
1338	 1.00900811081273 
1339	 1.00869310953203 
1340	 1.00839474302361 
1341	 1.00807117029031 
1342	 1.00773453820785 
1343	 1.00739707382048 
1344	 1.00706752277696 
1345	 1.00669595956888 
1346	 1.00630580232501 
1347	 1.00590523210413 
1348	 1.00548047752699 
1349	 1.00503790539956 
1350	 1.00458657656716 
1351	 1.00411337272383 
1352	 1.00361437056637 
1353	 1.00309715720784 
1354	 1.00256519179162 
1355	 1.00202005592334 
1356	 1.00145718270041 
1357	 1.00087063990753 
1358	 1.00022362751196 
1359	 0.999629777116022 
1360	 0.999041176509065 
1361	 0.998458940709134 
1362	 0.997907029518259 
1363	 0.997407260262476 
1364	 0.99690080359951 
1365	 0.996398611779347 
1366	 0.995913170085041 
1367	 0.995453689456731 
1368	 0.994989492519024 
1369	 0.994564423129427 
1370	 0.994046248149925 
1371	 0.993519613668817 
1372	 0.992932891500811 
1373	 0.992276895735967 
1374	 0.991586560104766 
1375	 0.990895791563955 
1376	 0.990083639255998 
1377	 0.989156501908747 
1378	 0.988227813750518 
1379	 0.987200252672327 
1380	 0.986199453112311 
1381	 0.985191593329944 
1382	 0.984162555960532 
1383	 0.983105637215259 
1384	 0.982053186002938 
1385	 0.98104883097967 
1386	 0.979955856283885 
1387	 0.978874675272603 
1388	 0.977703605318985 
1389	 0.976476144360223 
1390	 0.9751560294896 
1391	 0.973794145979181 
1392	 0.972275393193326 
1393	 0.970780797366276 
1394	 0.969194065803289 
1395	 0.9675771706674 
1396	 0.965933888670881 
1397	 0.964253246159492 
1398	 0.962522564935403 
1399	 0.960733097168602 
1400	 0.958948271300142 
1401	 0.957004859427273 
1402	 0.955032994749467 
1403	 0.952791580011945 
1404	 0.950485777800862 
1405	 0.947837024994465 
1406	 0.944939724030137 
1407	 0.94181202189932 
1408	 0.938215749078334 
1409	 0.934854643434725 
1410	 0.931059763160891 
1411	 0.927972572986165 
1412	 0.924842051011805 
1413	 0.922675066664762 
1414	 0.921036463790324 
1415	 0.920089669606641 
1416	 0.920152143267506 
1417	 0.92028259677414 
1418	 0.921207371853182 
1419	 0.921843299044605 
1420	 0.922777054911527 
1421	 0.923349189833795 
1422	 0.923780201112833 
1423	 0.923993359703398 
1424	 0.923944053954718 
1425	 0.92373751135599 
1426	 0.923432843036869 
1427	 0.923015300366768 
1428	 0.922555497610058 
1429	 0.922076384380193 
1430	 0.921603276825507 
1431	 0.921088442245699 
1432	 0.920605219786403 
1433	 0.920129298147934 
1434	 0.919669058218874 
1435	 0.919197708663263 
1436	 0.918781238823303 
1437	 0.918412256834332 
1438	 0.918023017942815 
1439	 0.917659509109215 
1440	 0.917282745339669 
1441	 0.916887615243707 
1442	 0.916511748042317 
1443	 0.916141407545235 
1444	 0.915785195590048 
1445	 0.915431068011853 
1446	 0.915103196759893 
1447	 0.91479295900313 
1448	 0.914500220724715 
1449	 0.914227444549012 
1450	 0.913966380037469 
1451	 0.913736314192888 
1452	 0.913490223171809 
1453	 0.913241108115259 
1454	 0.913006790391867 
1455	 0.912764311742045 
1456	 0.912544694511891 
1457	 0.91235920736996 
1458	 0.91215868691322 
1459	 0.911959874647881 
1460	 0.91176140837642 
1461	 0.911553265406657 
1462	 0.911357670633697 
1463	 0.911163245149965 
1464	 0.910986642871489 
1465	 0.910829881766954 
1466	 0.910665320308243 
1467	 0.910522910292435 
1468	 0.910380105400681 
1469	 0.910254393861231 
1470	 0.910159361543633 
1471	 0.910078900260285 
1472	 0.91003991325554 
1473	 0.909956655075504 
1474	 0.909874698474219 
1475	 0.909776731655033 
1476	 0.909650979988426 
1477	 0.909542624151528 
1478	 0.90944563510133 
1479	 0.90932571784799 
1480	 0.909202917818121 
1481	 0.909056666538705 
1482	 0.908892569190306 
1483	 0.908715980038913 
1484	 0.908527485933485 
1485	 0.908318248429621 
1486	 0.90807300769395 
1487	 0.907857665763272 
1488	 0.907627915025549 
1489	 0.907424553491463 
1490	 0.907235991226877 
1491	 0.907072925699719 
1492	 0.906924862791333 
1493	 0.90679540468881 
1494	 0.906697419641356 
1495	 0.906606629414972 
1496	 0.906514210113336 
1497	 0.9064599898251 
1498	 0.906422966138552 
1499	 0.906425212692942 
1500	 0.906471690645656 
1501	 0.90652723340809 
1502	 0.906604583106731 
1503	 0.906710431123993 
1504	 0.906825695336755 
1505	 0.906984455267271 
1506	 0.907185898572841 
1507	 0.907412313387117 
1508	 0.907684294041885 
1509	 0.907958468746574 
1510	 0.908271776623391 
1511	 0.908565004692213 
1512	 0.908841281400548 
1513	 0.909144522699832 
1514	 0.909459845592299 
1515	 0.909773796345346 
1516	 0.910116740486834 
1517	 0.910442341232769 
1518	 0.910754521469622 
1519	 0.911061861540815 
1520	 0.911358838347262 
1521	 0.911650057244866 
1522	 0.911961620156853 
1523	 0.912313434244793 
1524	 0.912657668625743 
1525	 0.91303007645089 
1526	 0.913396192798836 
1527	 0.913752203390527 
1528	 0.914132582557861 
1529	 0.914531854248363 
1530	 0.914937080547749 
1531	 0.915347906665688 
1532	 0.915779398565374 
1533	 0.916229764928599 
1534	 0.916682499903455 
1535	 0.917148561823407 
1536	 0.917615594275724 
1537	 0.918090815713678 
1538	 0.91856346612017 
1539	 0.919045651734966 
1540	 0.919514117670319 
1541	 0.919969939414533 
1542	 0.920444384187093 
1543	 0.920949551842282 
1544	 0.921378110778398 
1545	 0.921801008950374 
1546	 0.922169065194509 
1547	 0.922467108430204 
1548	 0.92275772894218 
1549	 0.923030194922594 
1550	 0.923270944691428 
1551	 0.923472104468751 
1552	 0.923656311105882 
1553	 0.923823295782389 
1554	 0.92395745559268 
1555	 0.924045059224496 
1556	 0.92414655429652 
1557	 0.924220224825482 
1558	 0.924316145379442 
1559	 0.924435770861503 
1560	 0.924522787330116 
1561	 0.924587340375145 
1562	 0.924676394257435 
1563	 0.924731255157599 
1564	 0.924852791792672 
1565	 0.925037891714033 
1566	 0.925196098287546 
1567	 0.925365943831053 
1568	 0.925551140871128 
1569	 0.925729539536877 
1570	 0.925929820539731 
1571	 0.926173333472586 
1572	 0.926392377442348 
1573	 0.926603346237816 
1574	 0.926819657600606 
1575	 0.927032635021305 
1576	 0.927250580116357 
1577	 0.927472309089135 
1578	 0.927697035348481 
1579	 0.927918246442411 
1580	 0.928153892913166 
1581	 0.928414908488201 
1582	 0.928648160270073 
1583	 0.928869267700609 
1584	 0.929101639322057 
1585	 0.929322892541209 
1586	 0.929547273268431 
1587	 0.929793549327727 
1588	 0.930020206146664 
1589	 0.930208802560968 
1590	 0.930438609960396 
1591	 0.930695060768892 
1592	 0.930935881022967 
1593	 0.931190563902329 
1594	 0.931442300780702 
1595	 0.931688298576807 
1596	 0.931923802630313 
1597	 0.932175798365241 
1598	 0.932394964650903 
1599	 0.932551923746349 
1600	 0.932761720914656 
1601	 0.932971730005089 
1602	 0.933214162542451 
1603	 0.933537575326379 
1604	 0.933796369009202 
1605	 0.934020941120579 
1606	 0.934266545347866 
1607	 0.934497388547174 
1608	 0.934724820770845 
1609	 0.934987141384155 
1610	 0.935211393977032 
1611	 0.935385480859031 
1612	 0.935580083600561 
1613	 0.935791985530551 
1614	 0.935966572728149 
1615	 0.936126307734984 
1616	 0.936279889415041 
1617	 0.936387522624659 
1618	 0.936522102236957 
1619	 0.936693721950046 
1620	 0.9368235814701 
1621	 0.936935394034218 
1622	 0.93704561339319 
1623	 0.937122531750016 
1624	 0.937212865229897 
1625	 0.937320057206976 
1626	 0.937411135455162 
1627	 0.9375061781545 
1628	 0.937574501410339 
1629	 0.937622373521278 
1630	 0.937663140069213 
1631	 0.937673088771267 
1632	 0.93769619929551 
1633	 0.937707250749679 
1634	 0.937742432869606 
1635	 0.937800308621855 
1636	 0.937845243253948 
1637	 0.93790798551134 
1638	 0.937953954171229 
1639	 0.937983399433516 
1640	 0.938013388512676 
1641	 0.938041107176452 
1642	 0.938059108312351 
1643	 0.93807792295219 
1644	 0.938077225360815 
1645	 0.938063224024701 
1646	 0.938037878932847 
1647	 0.937991578104371 
1648	 0.937940899820029 
1649	 0.937914991919581 
1650	 0.937820049387425 
1651	 0.937676934877449 
1652	 0.937528008845982 
1653	 0.937349123470178 
1654	 0.937128078440814 
1655	 0.936893069759951 
1656	 0.936626189240913 
1657	 0.936301947654182 
1658	 0.935957215870699 
1659	 0.935615429240335 
1660	 0.935209675602969 
1661	 0.934737679949825 
1662	 0.934258263918175 
1663	 0.933755422526061 
1664	 0.933193549628749 
1665	 0.932625512344608 
1666	 0.931958968875916 
1667	 0.931196444642742 
1668	 0.930421799119716 
1669	 0.929626416876643 
1670	 0.928717437060373 
1671	 0.927756176709646 
1672	 0.926689868348154 
1673	 0.925510105553919 
1674	 0.924240273083514 
1675	 0.922857895592151 
1676	 0.921486192508606 
1677	 0.920017862851715 
1678	 0.918573543769139 
1679	 0.917134254890793 
1680	 0.915653664725455 
1681	 0.914137626059641 
1682	 0.912598728744446 
1683	 0.911035301293804 
1684	 0.90949611172771 
1685	 0.907916938585181 
1686	 0.906396007453367 
1687	 0.904880440418255 
1688	 0.903420163340929 
1689	 0.901983732880442 
1690	 0.900625526714704 
1691	 0.899321484226203 
1692	 0.898118705176087 
1693	 0.897037363198802 
1694	 0.895920450838115 
1695	 0.894871038317168 
1696	 0.893781923400846 
1697	 0.892673903631836 
1698	 0.891543596415134 
1699	 0.890447760685744 
1700	 0.889288455031646 
1701	 0.888081135601005 
1702	 0.886859298092146 
1703	 0.885580937826465 
1704	 0.884306712690789 
1705	 0.88299293202341 
1706	 0.881684529104976 
1707	 0.880503126093314 
1708	 0.87931273676682 
1709	 0.878153310803763 
1710	 0.877054743254239 
1711	 0.875861085719241 
1712	 0.874733187107445 
1713	 0.873599817234983 
1714	 0.872399227161431 
1715	 0.87124315461863 
1716	 0.869981060077275 
1717	 0.868690629197172 
1718	 0.867369421932883 
1719	 0.865959912668611 
1720	 0.864613893487015 
1721	 0.863260892028936 
1722	 0.861946550445885 
1723	 0.860818388815742 
1724	 0.859717337233595 
1725	 0.858770944801388 
1726	 0.858040543489506 
1727	 0.857437831795864 
1728	 0.857128573908077 
1729	 0.857072543353243 
1730	 0.857211729614959 
1731	 0.857540559995431 
1732	 0.858078557048161 
1733	 0.858701273100146 
1734	 0.859466253850378 
1735	 0.860424787567906 
1736	 0.861403189760069 
1737	 0.86242769187308 
1738	 0.863425716848494 
1739	 0.864305700734081 
1740	 0.865120408405408 
1741	 0.865860557747799 
1742	 0.866546268222749 
1743	 0.867138368325609 
1744	 0.867632907796183 
1745	 0.86807568947357 
1746	 0.868441553049747 
1747	 0.868720338111317 
1748	 0.868939713920528 
1749	 0.869059004435164 
1750	 0.869066558521287 
1751	 0.869025779141165 
1752	 0.868882875571848 
1753	 0.868758029072682 
1754	 0.86857023309911 
1755	 0.868391109085761 
1756	 0.868196271105393 
1757	 0.86797821068511 
1758	 0.867805998589925 
1759	 0.86768229547914 
1760	 0.86764338674149 
1761	 0.86771254921934 
1762	 0.86785790147373 
1763	 0.868112418629012 
1764	 0.868425878884987 
1765	 0.86883262957745 
1766	 0.869368538443778 
1767	 0.869977901563243 
1768	 0.870685370104213 
1769	 0.871403024728296 
1770	 0.872079065099063 
1771	 0.87278339356395 
1772	 0.873470819789379 
1773	 0.874172435400217 
1774	 0.874895982349474 
1775	 0.875568465126435 
1776	 0.876224000588117 
1777	 0.876828418010797 
1778	 0.877306523412167 
1779	 0.877682611103121 
1780	 0.878003845236218 
1781	 0.878279414308335 
1782	 0.878535406976615 
1783	 0.878791739718761 
1784	 0.879041738223317 
1785	 0.879165263180665 
1786	 0.879315990349211 
1787	 0.87947347960221 
1788	 0.87957096061949 
1789	 0.879656725612622 
1790	 0.879745631545864 
1791	 0.879767437230295 
1792	 0.879852044657364 
1793	 0.87998545028619 
1794	 0.880045439844463 
1795	 0.880072955319212 
1796	 0.880008983649178 
1797	 0.87999625396888 
1798	 0.880055736446577 
1799	 0.880113346079807 
1800	 0.880245050737283 
1801	 0.87208615163592 
1802	 0.872357666359088 
1803	 0.872662478615717 
1804	 0.873033801503593 
1805	 0.873500648237778 
1806	 0.873907469898155 
1807	 0.874361764095434 
1808	 0.874741280366986 
1809	 0.875121248327896 
1810	 0.875416848100555 
1811	 0.875642180206345 
1812	 0.875861841672389 
1813	 0.876017855964154 
1814	 0.876202978404604 
1815	 0.876356805290779 
1816	 0.876496254952786 
1817	 0.876597842759567 
1818	 0.876655225697655 
1819	 0.876709662693347 
1820	 0.876727009685222 
1821	 0.876758631427935 
1822	 0.876767445736419 
1823	 0.876809289676683 
1824	 0.876870372097817 
1825	 0.876926736433822 
1826	 0.876992908045369 
1827	 0.877094254002808 
1828	 0.877148635136116 
1829	 0.877197547683 
1830	 0.877222616141984 
1831	 0.87721695664353 
1832	 0.877204557310408 
1833	 0.877218326602318 
1834	 0.8772240400281 
1835	 0.877181584568455 
1836	 0.877166308369514 
1837	 0.877163113857352 
1838	 0.87713104433328 
1839	 0.877135173921798 
1840	 0.877190780504614 
1841	 0.877219327312213 
1842	 0.877233861604649 
1843	 0.877273233611995 
1844	 0.877319936104558 
1845	 0.87733998263341 
1846	 0.877368132034475 
1847	 0.877370641007087 
1848	 0.87732473723784 
1849	 0.877235843790817 
1850	 0.877150074555053 
1851	 0.877046994436329 
1852	 0.876900741828651 
1853	 0.876733063539404 
1854	 0.876565691991746 
1855	 0.876339973589322 
1856	 0.876047302593939 
1857	 0.875727175232667 
1858	 0.875358508376808 
1859	 0.874955061261876 
1860	 0.874499301664764 
1861	 0.87401682507391 
1862	 0.873518614018828 
1863	 0.872980607194779 
1864	 0.872336102886608 
1865	 0.871622529952611 
1866	 0.870779574674129 
1867	 0.869791153177632 
1868	 0.868742425613049 
1869	 0.867591207486763 
1870	 0.866370167176904 
1871	 0.86506695480329 
1872	 0.86371857387285 
1873	 0.862267721058788 
1874	 0.860828038502538 
1875	 0.859388858384785 
1876	 0.857787918465919 
1877	 0.856289254381704 
1878	 0.854670136760919 
1879	 0.852900741971773 
1880	 0.851223371415687 
1881	 0.849363233783479 
1882	 0.847363337992608 
1883	 0.845294414689939 
1884	 0.843117356146653 
1885	 0.840601756235511 
1886	 0.838035946271324 
1887	 0.835202909336075 
1888	 0.832095333607664 
1889	 0.829115859287134 
1890	 0.825848811189133 
1891	 0.822511463017772 
1892	 0.819169119781402 
1893	 0.815520853723127 
1894	 0.811564927768257 
1895	 0.80766686157387 
1896	 0.803537665164652 
1897	 0.799188273191795 
1898	 0.795173447514216 
1899	 0.790906407833058 
1900	 0.786656197461431 
1901	 0.782522139193571 
1902	 0.777986012969057 
1903	 0.773629245514135 
1904	 0.769328332630075 
1905	 0.765000461360674 
1906	 0.760698966174496 
1907	 0.756862493648871 
1908	 0.75294243977523 
1909	 0.749155488278644 
1910	 0.745587772107018 
1911	 0.741776687453632 
1912	 0.738187747786503 
1913	 0.734642820754268 
1914	 0.731057637027275 
1915	 0.727728521880628 
1916	 0.724645738297373 
1917	 0.721496349245513 
1918	 0.718504980263869 
1919	 0.715661327691602 
1920	 0.712655876606072 
1921	 0.709867064921586 
1922	 0.707081949918782 
1923	 0.704281573640902 
1924	 0.701830040294199 
1925	 0.699399452591858 
1926	 0.697074629663058 
1927	 0.694950969319363 
1928	 0.692833400386873 
1929	 0.690723114775388 
1930	 0.688776096492173 
1931	 0.686892149233783 
1932	 0.685076652873814 
1933	 0.683540373489113 
1934	 0.682041476802789 
1935	 0.680674117817829 
1936	 0.679520713265708 
1937	 0.678386253896121 
1938	 0.677293691540059 
1939	 0.676365288827265 
1940	 0.675556288417924 
1941	 0.674798928098863 
1942	 0.674240141626826 
1943	 0.673787080427095 
1944	 0.673405779272533 
1945	 0.673163741862118 
1946	 0.673000413766468 
1947	 0.672922808113716 
1948	 0.672975688002809 
1949	 0.673126504834905 
1950	 0.673339699000962 
1951	 0.673659537900895 
1952	 0.674022221787616 
1953	 0.674442228661523 
1954	 0.674926875521754 
1955	 0.67551488496574 
1956	 0.676091927493094 
1957	 0.676737974922211 
1958	 0.677451016215577 
1959	 0.67812725679512 
1960	 0.678859984903293 
1961	 0.67961213744898 
1962	 0.68037940662994 
1963	 0.681179108545983 
1964	 0.68201246704634 
1965	 0.682868031998179 
1966	 0.683771572890289 
1967	 0.684668503287364 
1968	 0.685549211684683 
1969	 0.686438938734998 
1970	 0.687264810080759 
1971	 0.688084907356519 
1972	 0.688960378956664 
1973	 0.689824662112606 
1974	 0.690717453919171 
1975	 0.691677843922826 
1976	 0.692588741221581 
1977	 0.693481350996842 
1978	 0.694385890601552 
1979	 0.695285782133598 
1980	 0.69615875908542 
1981	 0.697112422223237 
1982	 0.698031636471432 
1983	 0.698975302625393 
1984	 0.699938138420994 
1985	 0.700798248234447 
1986	 0.701688174970095 
1987	 0.702567632501647 
1988	 0.703401008139298 
1989	 0.704285037402668 
1990	 0.705200086356815 
1991	 0.706093770266045 
1992	 0.707013516389989 
1993	 0.707921152311985 
1994	 0.708727445523172 
1995	 0.70959641215289 
1996	 0.710434854905855 
1997	 0.711251311552396 
1998	 0.712134949664337 
1999	 0.713077569189849 
2000	 0.713979533442203 
2001	 0.714924097991121 
2002	 0.715818003561343 
2003	 0.716686209586454 
2004	 0.71753945184631 
2005	 0.71833798537356 
2006	 0.719169870142263 
2007	 0.720030908370161 
2008	 0.720840889404433 
2009	 0.721639087160766 
2010	 0.722457754983946 
2011	 0.723182947639528 
2012	 0.723919181098914 
2013	 0.724606886773545 
2014	 0.725269911929315 
2015	 0.725899016187073 
2016	 0.726518998978738 
2017	 0.727033843710746 
2018	 0.727520437198989 
2019	 0.727920145516773 
2020	 0.728222689761092 
2021	 0.728468570712894 
2022	 0.728638391731705 
2023	 0.728711279828983 
2024	 0.728701662177202 
2025	 0.728591227339303 
2026	 0.72842459367707 
2027	 0.728181659725953 
2028	 0.727880898242796 
2029	 0.727490997021394 
2030	 0.727069314599678 
2031	 0.726588388774861 
2032	 0.72607182449839 
2033	 0.725448751004228 
2034	 0.724887172364039 
2035	 0.724305939540993 
2036	 0.723724146943766 
2037	 0.723221227818451 
2038	 0.72277784863665 
2039	 0.722399191407674 
2040	 0.722059875330553 
2041	 0.721835449217796 
2042	 0.721667078157549 
2043	 0.721635107558327 
2044	 0.721734786750874 
2045	 0.72189465424369 
2046	 0.72217176423129 
2047	 0.722504323808212 
2048	 0.722908810316517 
2049	 0.72337521573637 
2050	 0.7239416916485 
2051	 0.724527491379852 
2052	 0.725173877512703 
2053	 0.725901667320699 
2054	 0.726631439840642 
2055	 0.727397919792687 
2056	 0.728213943794948 
2057	 0.729042120462096 
2058	 0.729952359621444 
2059	 0.730947966667451 
2060	 0.73194056615536 
2061	 0.733033501866813 
2062	 0.734056897280658 
2063	 0.735043669299229 
2064	 0.736072518245093 
2065	 0.737100359616331 
2066	 0.738103582976983 
2067	 0.739223625152789 
2068	 0.74032300795303 
2069	 0.741407167550793 
2070	 0.74254225795679 
2071	 0.743566455713225 
2072	 0.744519123327977 
2073	 0.745482469825439 
2074	 0.746377223049811 
2075	 0.747305954352639 
2076	 0.748282274264281 
2077	 0.74917833974328 
2078	 0.750076761781945 
2079	 0.750892643960299 
2080	 0.751619922179496 
2081	 0.752336764121814 
2082	 0.753004024350719 
2083	 0.753625907639721 
2084	 0.754284450369606 
2085	 0.754887315770974 
2086	 0.755476622644031 
2087	 0.756078920826302 
2088	 0.756592271649699 
2089	 0.757031425668375 
2090	 0.757480658044436 
2091	 0.757871487013707 
2092	 0.758275592933262 
2093	 0.758713117472794 
2094	 0.759075734645348 
2095	 0.759398693398914 
2096	 0.759698771394542 
2097	 0.759953981484755 
2098	 0.760173537242679 
2099	 0.760393886851362 
2100	 0.760594544249409 
2101	 0.760760909739648 
2102	 0.760897090132237 
2103	 0.761015439668202 
2104	 0.761100907125258 
2105	 0.761174125363443 
2106	 0.761207586946192 
2107	 0.761273818485456 
2108	 0.761359447986564 
2109	 0.761403862639228 
2110	 0.761448316892831 
2111	 0.761470036812181 
2112	 0.761447127857403 
2113	 0.761424528146214 
2114	 0.761384246049829 
2115	 0.761359757278424 
2116	 0.761346314377087 
2117	 0.761300568860866 
2118	 0.761258681790779 
2119	 0.761231246684586 
2120	 0.761187232015291 
2121	 0.761123310140636 
2122	 0.761048417229 
2123	 0.760999242588498 
2124	 0.760879845278608 
2125	 0.76072037279598 
2126	 0.760535394925781 
2127	 0.760341486498861 
2128	 0.760053585618289 
2129	 0.759691345947684 
2130	 0.75932034905197 
2131	 0.758891875663658 
2132	 0.75842352837206 
2133	 0.757998717032385 
2134	 0.75742961028698 
2135	 0.756698475221089 
2136	 0.755986329353631 
2137	 0.755166814923419 
2138	 0.754229679290587 
2139	 0.753264959441811 
2140	 0.752258323598779 
2141	 0.751163829377026 
2142	 0.749976679138405 
2143	 0.748767783887513 
2144	 0.747479503286343 
2145	 0.746205366350176 
2146	 0.744852651786247 
2147	 0.743572134422646 
2148	 0.742358682954678 
2149	 0.741063803526353 
2150	 0.739804405255163 
2151	 0.73846628545726 
2152	 0.737025836262775 
2153	 0.735592483027992 
2154	 0.734094944844652 
2155	 0.732571791784798 
2156	 0.731102386058951 
2157	 0.72962643130552 
2158	 0.728144502959513 
2159	 0.726747417232956 
2160	 0.725202037380237 
2161	 0.723545427208706 
2162	 0.721965238106524 
2163	 0.72028412750356 
2164	 0.718747120814066 
2165	 0.717304920709069 
2166	 0.715865827147884 
2167	 0.714505391206535 
2168	 0.71312939961754 
2169	 0.711701276428614 
2170	 0.710407067990354 
2171	 0.709114802128615 
2172	 0.707968564247572 
2173	 0.706977819882165 
2174	 0.706030401601968 
2175	 0.70520784952652 
2176	 0.704480446711596 
2177	 0.70378163228834 
2178	 0.703155164204186 
2179	 0.702604672835702 
2180	 0.702104775312683 
2181	 0.701680794169499 
2182	 0.701372804321921 
2183	 0.701051690199693 
2184	 0.700745563380043 
2185	 0.700536166660222 
2186	 0.700389703537557 
2187	 0.700285164180758 
2188	 0.700258564209876 
2189	 0.700277803523504 
2190	 0.700338750113549 
2191	 0.700450706411756 
2192	 0.700674277984251 
2193	 0.700867895070455 
2194	 0.701100030062389 
2195	 0.701313497561879 
2196	 0.701523566452777 
2197	 0.701727318343118 
2198	 0.701941517110388 
2199	 0.702138642383323 
2200	 0.702320023903331 
2201	 0.702484653113666 
2202	 0.702671429866555 
2203	 0.702843859339945 
2204	 0.703030903075777 
2205	 0.703258695012401 
2206	 0.703423393252475 
2207	 0.703554767938425 
2208	 0.703691158455785 
2209	 0.703822857132324 
2210	 0.703906970791294 
2211	 0.703960417936396 
2212	 0.704016461485592 
2213	 0.704026114514878 
2214	 0.704046799378027 
2215	 0.704080784327053 
2216	 0.704108475684001 
2217	 0.704121156707732 
2218	 0.704130254651922 
2219	 0.704163579106482 
2220	 0.704159952808528 
2221	 0.704148819344582 
2222	 0.704100570961482 
2223	 0.703989056198633 
2224	 0.703801006044967 
2225	 0.703636047653438 
2226	 0.703468740524025 
2227	 0.703261930045442 
2228	 0.703110086278122 
2229	 0.702797401187916 
2230	 0.70237867304863 
2231	 0.701926667156886 
2232	 0.70140481784104 
2233	 0.700813919279126 
2234	 0.70021940840715 
2235	 0.699429558423877 
2236	 0.698526638768344 
2237	 0.697499527238158 
2238	 0.696259055193154 
2239	 0.69502747348825 
2240	 0.693751427669484 
2241	 0.692341912687897 
2242	 0.690931018233912 
2243	 0.68929253997776 
2244	 0.687451883786727 
2245	 0.685527777628709 
2246	 0.683366744855718 
2247	 0.6812245818436 
2248	 0.679049378027483 
2249	 0.676761559231859 
2250	 0.674421188374743 
2251	 0.672040510440973 
2252	 0.669303519488369 
2253	 0.6666419965298 
2254	 0.663887643141839 
2255	 0.660983590595848 
2256	 0.658327479067681 
2257	 0.655645852983218 
2258	 0.653025361407219 
2259	 0.650472490469336 
2260	 0.647926895922662 
2261	 0.645362565218969 
2262	 0.642964169782565 
2263	 0.640593438885857 
2264	 0.638398770872528 
2265	 0.636366262982558 
2266	 0.634395566830577 
2267	 0.632592386882557 
2268	 0.630766522845789 
2269	 0.629013949495232 
2270	 0.627288813164661 
2271	 0.625536493213723 
2272	 0.623914400951048 
2273	 0.622419253785481 
2274	 0.620903680191057 
2275	 0.619527700563527 
2276	 0.618021034177792 
2277	 0.616417369867746 
2278	 0.614892081686552 
2279	 0.613304514137109 
2280	 0.6117922061086 
2281	 0.610386683977504 
2282	 0.60893907493945 
2283	 0.607463105921188 
2284	 0.606078655887776 
2285	 0.604616870179471 
2286	 0.603194844442358 
2287	 0.601794670256729 
2288	 0.60041868035664 
2289	 0.599184104352219 
2290	 0.597994322040091 
2291	 0.596866186019889 
2292	 0.595684214636144 
2293	 0.594367577211963 
2294	 0.593067773152341 
2295	 0.59162711186978 
2296	 0.59008445032931 
2297	 0.588593419839307 
2298	 0.587065669258304 
2299	 0.585513256331646 
2300	 0.583948325889964 
2301	 0.582438796329952 
2302	 0.580830736474185 
2303	 0.579472334616164 
2304	 0.578165380347633 
2305	 0.577119647133084 
2306	 0.576222887319425 
2307	 0.575621033482757 
2308	 0.575206552955281 
2309	 0.57519474536958 
2310	 0.575466995234288 
2311	 0.576140032382029 
2312	 0.577342819866474 
2313	 0.578614854444404 
2314	 0.580320000418085 
2315	 0.581951306574633 
2316	 0.58377886788135 
2317	 0.58545349976678 
2318	 0.587249979152786 
2319	 0.588721642314782 
2320	 0.59011268745493 
2321	 0.591178232605846 
2322	 0.591955985901707 
2323	 0.592555009549683 
2324	 0.592825185840853 
2325	 0.593008385377093 
2326	 0.593006906002447 
2327	 0.592885464635342 
2328	 0.592549169401726 
2329	 0.592212108846725 
2330	 0.591795243070519 
2331	 0.591255159898075 
2332	 0.590686399744492 
2333	 0.590061670710683 
2334	 0.589215002453604 
2335	 0.588219815221516 
2336	 0.587056182739832 
2337	 0.585725440329188 
2338	 0.584357002497458 
2339	 0.582836041230109 
2340	 0.581296398292948 
2341	 0.57971389698427 
2342	 0.577958804169703 
2343	 0.576332366021951 
2344	 0.574797003160204 
2345	 0.573288606151332 
2346	 0.57210747368832 
2347	 0.571207103579202 
2348	 0.570565734604876 
2349	 0.570348922632879 
2350	 0.570498604436297 
2351	 0.571004493580497 
2352	 0.571869396358263 
2353	 0.573132421122943 
2354	 0.574565898311361 
2355	 0.57616782824545 
2356	 0.577791754022146 
2357	 0.579380341559467 
2358	 0.580985039845968 
2359	 0.582391277832166 
2360	 0.583692720359231 
2361	 0.58474798553848 
2362	 0.585569700370412 
2363	 0.586241219241732 
2364	 0.586755103105576 
2365	 0.58725014985308 
2366	 0.587685011610954 
2367	 0.588067670166959 
2368	 0.588427266834425 
2369	 0.588647649118416 
2370	 0.588842960516847 
2371	 0.589053174647484 
2372	 0.589190685049934 
2373	 0.589345240560354 
2374	 0.589453447093063 
2375	 0.589506690538384 
2376	 0.589533006851086 
2377	 0.589507919111695 
2378	 0.589452440561325 
2379	 0.58938199462157 
2380	 0.589374787133447 
2381	 0.589320093180851 
2382	 0.589239613068853 
2383	 0.589152969289916 
2384	 0.589056668132064 
2385	 0.588898492518187 
2386	 0.588827533831821 
2387	 0.588825991880231 
2388	 0.588756570249682 
2389	 0.588642226774637 
2390	 0.588607881624261 
2391	 0.588613503645201 
2392	 0.588528532190334 
2393	 0.588468475302927 
2394	 0.588385431301543 
2395	 0.588181399577238 
2396	 0.588087140510335 
2397	 0.588137568857751 
2398	 0.588025748999446 
2399	 0.587833397802069 
2400	 0.587653865953492 
2401	 0.587398764263783 
2402	 0.587100736653223 
2403	 0.586852796123801 
2404	 0.586745339574642 
2405	 0.586630097283763 
2406	 0.586483536046948 
2407	 0.586464042278224 
2408	 0.586320007380001 
2409	 0.586151896128119 
2410	 0.586111968458411 
2411	 0.586049281302317 
2412	 0.585926383703504 
2413	 0.585729442065365 
2414	 0.585491752601957 
2415	 0.585158986789873 
2416	 0.584867767625261 
2417	 0.584658979052128 
2418	 0.584554489595267 
2419	 0.584584142743437 
2420	 0.584544468112195 
2421	 0.584487900808584 
2422	 0.584240123998191 
2423	 0.583754789300938 
2424	 0.583284251988102 
2425	 0.582801326274908 
2426	 0.582343966807586 
2427	 0.582049622535768 
2428	 0.581911078695677 
2429	 0.581727605763846 
2430	 0.581488886177765 
2431	 0.581143983703577 
2432	 0.580518900427845 
2433	 0.579940149899322 
2434	 0.579404811733756 
2435	 0.57879253689693 
2436	 0.578407949762485 
2437	 0.577956684425154 
2438	 0.577322713592673 
2439	 0.576785004391422 
2440	 0.576033693162872 
2441	 0.575126324448549 
2442	 0.57444573050638 
2443	 0.573584130632163 
2444	 0.572582590006525 
2445	 0.571716625487858 
2446	 0.570476213935676 
2447	 0.569463874169428 
2448	 0.568914001530789 
2449	 0.568035121589537 
2450	 0.567347499934276 
2451	 0.566545041425999 
2452	 0.565209100383992 
2453	 0.563964836773035 
2454	 0.562795858965449 
2455	 0.561511194416926 
2456	 0.560268106708089 
2457	 0.559326454896583 
2458	 0.558320449719024 
2459	 0.557340030563541 
2460	 0.556548808404814 
2461	 0.555691827988166 
2462	 0.554905477127963 
2463	 0.554156925967381 
2464	 0.553377713199131 
2465	 0.55251353383258 
2466	 0.551573346567107 
2467	 0.550513792215814 
2468	 0.549600874027406 
2469	 0.548962721854393 
2470	 0.548324263744618 
2471	 0.547742798943283 
2472	 0.547015191029104 
2473	 0.546183150930761 
2474	 0.545502548139832 
2475	 0.545105722353703 
2476	 0.544905371447806 
2477	 0.544362323594684 
2478	 0.54355086184627 
2479	 0.542502571478704 
2480	 0.541818974876077 
2481	 0.541119139630067 
2482	 0.540427990528151 
2483	 0.540096748524848 
2484	 0.539305312042251 
2485	 0.538858502872387 
2486	 0.538325960320919 
2487	 0.53721979017112 
2488	 0.53644264891327 
2489	 0.536167213305781 
2490	 0.535891412405838 
2491	 0.535308822272663 
2492	 0.534760807797201 
2493	 0.534015511057255 
2494	 0.533069511555163 
2495	 0.532744385009113 
2496	 0.532823165029814 
2497	 0.532383547228753 
2498	 0.531994606852915 
2499	 0.53211246300785 
2500	 0.531728765908956 
