Wavelength	ProbetaAcolman00018.asd
350	 0.561551983467302 
351	 0.54750959723385 
352	 0.534716568167367 
353	 0.529245798011093 
354	 0.510073464824368 
355	 0.492757576580874 
356	 0.487217105577232 
357	 0.492555125296082 
358	 0.483991345084584 
359	 0.471785646447368 
360	 0.464333633335071 
361	 0.464448813804815 
362	 0.449316830430148 
363	 0.437530679126405 
364	 0.435633456580095 
365	 0.42792902491769 
366	 0.429492024759042 
367	 0.428925158849476 
368	 0.419792667524017 
369	 0.433150650995848 
370	 0.422520435514603 
371	 0.400905087729843 
372	 0.40891234316399 
373	 0.412958047204537 
374	 0.403397848478139 
375	 0.384981624046996 
376	 0.378418878872776 
377	 0.381518351796 
378	 0.387219207902735 
379	 0.388527227749784 
380	 0.384587718780935 
381	 0.379411690735985 
382	 0.375736119566347 
383	 0.374371031053532 
384	 0.371734979111577 
385	 0.371515013512091 
386	 0.374331245874138 
387	 0.375669923884873 
388	 0.372057291533555 
389	 0.370255247378353 
390	 0.374320827562293 
391	 0.368866106421783 
392	 0.36560993261004 
393	 0.366760806946312 
394	 0.367709101616863 
395	 0.364203032019749 
396	 0.362702973283023 
397	 0.365379999894605 
398	 0.365899896298354 
399	 0.36558282588736 
400	 0.366474902506531 
401	 0.368853224596446 
402	 0.36415961684307 
403	 0.365650447946307 
404	 0.371984085373776 
405	 0.372010802850533 
406	 0.375881103366401 
407	 0.376844604332832 
408	 0.373058372893284 
409	 0.375796643273498 
410	 0.377295096983849 
411	 0.378636890632571 
412	 0.382311695008756 
413	 0.384625928358939 
414	 0.384934821066567 
415	 0.385560929750448 
416	 0.390658785725275 
417	 0.39325376711061 
418	 0.394271547104803 
419	 0.395199108328626 
420	 0.395554107861511 
421	 0.395411559587337 
422	 0.396286971766134 
423	 0.39924602574659 
424	 0.399255406325294 
425	 0.399623572728569 
426	 0.400964620862566 
427	 0.400370501036616 
428	 0.400231586654731 
429	 0.400403845398688 
430	 0.400250663422867 
431	 0.399238548605648 
432	 0.39858950863359 
433	 0.398610849343684 
434	 0.39894456113523 
435	 0.398285393621767 
436	 0.397657539970206 
437	 0.397450159911931 
438	 0.396723198448452 
439	 0.396144249038754 
440	 0.395693535553539 
441	 0.395106076800039 
442	 0.393894326670912 
443	 0.39291022482855 
444	 0.39211520819931 
445	 0.390816232461833 
446	 0.389490200283809 
447	 0.388762664576482 
448	 0.388474589547018 
449	 0.386705148019265 
450	 0.385311618727394 
451	 0.384470050952219 
452	 0.38367820947143 
453	 0.382462014683039 
454	 0.380881145996434 
455	 0.379308387182307 
456	 0.378360121922083 
457	 0.377039743017411 
458	 0.375436987908175 
459	 0.37386321929672 
460	 0.372525156215854 
461	 0.371277676336718 
462	 0.369987993486265 
463	 0.368554666836115 
464	 0.367146702909206 
465	 0.365627228025767 
466	 0.364021434091521 
467	 0.362652397887788 
468	 0.36135087357119 
469	 0.360056858877249 
470	 0.358766576944624 
471	 0.357604070397477 
472	 0.356355876381491 
473	 0.35495150886123 
474	 0.353468482496579 
475	 0.352354737555886 
476	 0.351361835938419 
477	 0.350219894323442 
478	 0.348796969847873 
479	 0.347807812293 
480	 0.3470345397 
481	 0.345992812188713 
482	 0.345041733165698 
483	 0.344013276289467 
484	 0.34293278541255 
485	 0.342067674014913 
486	 0.341265620987106 
487	 0.340567130790466 
488	 0.339975949646753 
489	 0.339273102819641 
490	 0.338531585195442 
491	 0.337797505472275 
492	 0.337101493040023 
493	 0.336423427656191 
494	 0.335961607348994 
495	 0.335601004581769 
496	 0.334664345375348 
497	 0.333990373690017 
498	 0.333511020506259 
499	 0.332921967303842 
500	 0.332206939188063 
501	 0.33149363064526 
502	 0.330821439552204 
503	 0.330148667402378 
504	 0.329547886208843 
505	 0.328847813357846 
506	 0.327968450432657 
507	 0.327125145957447 
508	 0.32628646109394 
509	 0.325447819540016 
510	 0.324621311117123 
511	 0.323902494631994 
512	 0.323079857967665 
513	 0.322145544278799 
514	 0.321375999631842 
515	 0.320390635214907 
516	 0.319357822393521 
517	 0.318457664987678 
518	 0.317416950107941 
519	 0.316359931926084 
520	 0.315307563467871 
521	 0.314205548383183 
522	 0.312978525645704 
523	 0.311799782963156 
524	 0.310736721650104 
525	 0.30959429652944 
526	 0.308375237124948 
527	 0.307112798810579 
528	 0.305852978751909 
529	 0.304609125750005 
530	 0.303309821193579 
531	 0.301994560334316 
532	 0.300820224699153 
533	 0.299594203301523 
534	 0.298299859644477 
535	 0.296988077392252 
536	 0.295787197514814 
537	 0.294556030915661 
538	 0.293275313424674 
539	 0.292007426692295 
540	 0.29089507736127 
541	 0.289816130048206 
542	 0.288694232796655 
543	 0.287574009252441 
544	 0.286531564301743 
545	 0.285566173164249 
546	 0.284641550438778 
547	 0.283692976181941 
548	 0.282791020232935 
549	 0.281972299812739 
550	 0.281236552333112 
551	 0.280562290248596 
552	 0.279855298423866 
553	 0.279093764236065 
554	 0.278474181257146 
555	 0.277804358971492 
556	 0.277100786583434 
557	 0.276453380531221 
558	 0.275714777552554 
559	 0.274957456958552 
560	 0.274210911314551 
561	 0.273420468110037 
562	 0.272564748013511 
563	 0.27173038918383 
564	 0.270953394385197 
565	 0.269962344304068 
566	 0.269031714333698 
567	 0.268183176638272 
568	 0.267246227063061 
569	 0.266310850200585 
570	 0.265365407825196 
571	 0.264379382782345 
572	 0.263307378294251 
573	 0.262309858165547 
574	 0.261322832539955 
575	 0.260223635141689 
576	 0.259139610126954 
577	 0.258053053474206 
578	 0.25696200523306 
579	 0.255891628472719 
580	 0.25482560830718 
581	 0.25373835066463 
582	 0.252614349978793 
583	 0.251475787042866 
584	 0.250347032834218 
585	 0.249221644903448 
586	 0.248078815238759 
587	 0.246970103875664 
588	 0.245827932605917 
589	 0.244643516107812 
590	 0.243524644145981 
591	 0.242407455313391 
592	 0.241293308771125 
593	 0.240197488315851 
594	 0.239117883006653 
595	 0.238051358385863 
596	 0.23700059513094 
597	 0.23597759781348 
598	 0.235059268648665 
599	 0.234100118229331 
600	 0.233053452219766 
601	 0.232224385185234 
602	 0.231302713906011 
603	 0.230299849006381 
604	 0.229360805936513 
605	 0.228489165706691 
606	 0.227639919259242 
607	 0.226782055726175 
608	 0.225910662212708 
609	 0.225094324131415 
610	 0.224267698564072 
611	 0.223376323542766 
612	 0.222514945529463 
613	 0.221747262657583 
614	 0.220976432924535 
615	 0.220027638062415 
616	 0.21907800656593 
617	 0.218202516380559 
618	 0.217370026067178 
619	 0.216383963959701 
620	 0.215421286647977 
621	 0.21452079121638 
622	 0.213647062869879 
623	 0.212649234236164 
624	 0.211652807151966 
625	 0.210703377314885 
626	 0.209758412033149 
627	 0.208781069630506 
628	 0.207777414849382 
629	 0.206779561321031 
630	 0.205865517683143 
631	 0.204932787562693 
632	 0.203980979282569 
633	 0.203057886004336 
634	 0.202185701807169 
635	 0.201340551332277 
636	 0.200503964840662 
637	 0.199671625879723 
638	 0.198886861420808 
639	 0.198154051646581 
640	 0.197464746120597 
641	 0.196810600644618 
642	 0.196151070200429 
643	 0.195506200570785 
644	 0.194927474744589 
645	 0.19438741987793 
646	 0.193890496779011 
647	 0.193437078855453 
648	 0.193015378010007 
649	 0.192617263281924 
650	 0.192238307986806 
651	 0.191900840621887 
652	 0.191733000561414 
653	 0.191575167306666 
654	 0.191417747328579 
655	 0.191374901031054 
656	 0.191408871825303 
657	 0.191487503991683 
658	 0.191607841411925 
659	 0.19182704574046 
660	 0.19212630750486 
661	 0.192486609414587 
662	 0.192902778943549 
663	 0.193444337547972 
664	 0.194106617472451 
665	 0.194878617415253 
666	 0.19574772814201 
667	 0.196685853228834 
668	 0.197735222359921 
669	 0.19892148177499 
670	 0.200189642588247 
671	 0.201622575508117 
672	 0.203189204052495 
673	 0.204829375053364 
674	 0.20665934385981 
675	 0.208642717695931 
676	 0.210755449393854 
677	 0.213007307935999 
678	 0.215431979977566 
679	 0.218014269634818 
680	 0.220754417093029 
681	 0.223737010501992 
682	 0.226899085337888 
683	 0.230265821968004 
684	 0.233894365141598 
685	 0.237656135039219 
686	 0.241615030833766 
687	 0.245816942680994 
688	 0.250255794714151 
689	 0.25505954032133 
690	 0.260135495770126 
691	 0.265408034356952 
692	 0.27105658880092 
693	 0.276974863421654 
694	 0.283183327607899 
695	 0.289775489690268 
696	 0.296690469343956 
697	 0.303989756380933 
698	 0.311665280666226 
699	 0.319574466991696 
700	 0.327920712511967 
701	 0.336698285050333 
702	 0.345846305137713 
703	 0.355356133648051 
704	 0.36523847053821 
705	 0.375518142443438 
706	 0.386216896961031 
707	 0.397181382603411 
708	 0.408499029287714 
709	 0.420207228218926 
710	 0.432170057560665 
711	 0.444376097043538 
712	 0.456845836438487 
713	 0.469573490660726 
714	 0.48239925265579 
715	 0.495353960594967 
716	 0.508432063722004 
717	 0.521587164125446 
718	 0.534763202954539 
719	 0.547909720294989 
720	 0.560969674768076 
721	 0.573877802596549 
722	 0.586608120789581 
723	 0.599142878709004 
724	 0.611447482175366 
725	 0.623480448784454 
726	 0.635231427386869 
727	 0.646677100131864 
728	 0.657768531204941 
729	 0.668426637681364 
730	 0.678676258993661 
731	 0.688517385610328 
732	 0.697879378699852 
733	 0.706921496538586 
734	 0.715589652469292 
735	 0.723789970492263 
736	 0.731559473023072 
737	 0.738859205475528 
738	 0.74571715189689 
739	 0.752189058374923 
740	 0.758317158260067 
741	 0.763974919611657 
742	 0.769227559713081 
743	 0.774463982336716 
744	 0.779288146893143 
745	 0.783645011900618 
746	 0.787652901406669 
747	 0.791672177016788 
748	 0.795428839368443 
749	 0.798942094017993 
750	 0.802350410042643 
751	 0.805292947720945 
752	 0.808012323220631 
753	 0.810664168741894 
754	 0.813201954378617 
755	 0.815596659179171 
756	 0.817891055726777 
757	 0.820083197212513 
758	 0.821980574193283 
759	 0.823677667060523 
760	 0.825365285327582 
761	 0.827198957659279 
762	 0.828832212434784 
763	 0.830311463559979 
764	 0.831696643438332 
765	 0.83303259448737 
766	 0.83429887473636 
767	 0.835514743106195 
768	 0.836682780052507 
769	 0.837741316814094 
770	 0.838819779211681 
771	 0.839906287537701 
772	 0.840930626048442 
773	 0.841831825838762 
774	 0.842699369828602 
775	 0.84356001824502 
776	 0.844383821481809 
777	 0.845180005965572 
778	 0.845929478385676 
779	 0.846638976034212 
780	 0.847360803658272 
781	 0.848070979600864 
782	 0.848799639762846 
783	 0.849525599460292 
784	 0.849986703338954 
785	 0.850522169454381 
786	 0.851152369383896 
787	 0.851719520274526 
788	 0.852282045003875 
789	 0.852871301840843 
790	 0.853424424044544 
791	 0.853786886135153 
792	 0.854242448233414 
793	 0.854793983186593 
794	 0.855329459114985 
795	 0.855595055776082 
796	 0.8559900166666 
797	 0.85642735836151 
798	 0.856740286421768 
799	 0.857337105897394 
800	 0.857828687992262 
801	 0.858173536433241 
802	 0.858612846083196 
803	 0.859080201188766 
804	 0.859502909429964 
805	 0.859886885692382 
806	 0.860356892255954 
807	 0.860757376240169 
808	 0.861087874313826 
809	 0.861404017350407 
810	 0.861802159152586 
811	 0.862160794358554 
812	 0.862507258317602 
813	 0.862925029174423 
814	 0.863409920286195 
815	 0.863792911118347 
816	 0.864078811276236 
817	 0.864419430956105 
818	 0.864652095479303 
819	 0.864924168080454 
820	 0.865278768195702 
821	 0.865519008527209 
822	 0.865694116832388 
823	 0.865928184847761 
824	 0.866266805875049 
825	 0.866444362353825 
826	 0.866669354292545 
827	 0.866901825826151 
828	 0.867038452248791 
829	 0.867317816549899 
830	 0.867557887289961 
831	 0.867755370838302 
832	 0.868061824829026 
833	 0.868285028771456 
834	 0.868474790567525 
835	 0.868651852952026 
836	 0.868739691733906 
837	 0.868758351286994 
838	 0.868898340333704 
839	 0.869222785718503 
840	 0.869341474076592 
841	 0.869376332013392 
842	 0.869464041804623 
843	 0.86969298643489 
844	 0.869846608193584 
845	 0.87011606577481 
846	 0.870427514271184 
847	 0.870546310427493 
848	 0.870716702591687 
849	 0.870967800196877 
850	 0.871221377008931 
851	 0.871317073726315 
852	 0.871579576363417 
853	 0.871924014299755 
854	 0.872213500379385 
855	 0.872389542613866 
856	 0.872633988901456 
857	 0.872907283245111 
858	 0.873147150062464 
859	 0.873504550287278 
860	 0.873751722169269 
861	 0.873942203076802 
862	 0.874254844360141 
863	 0.874652145876642 
864	 0.874988421410433 
865	 0.875209853514516 
866	 0.875360025703161 
867	 0.875489287235842 
868	 0.875647837493031 
869	 0.87583094500604 
870	 0.875967959439466 
871	 0.876217142959188 
872	 0.876509222039052 
873	 0.876774911214106 
874	 0.877065805001265 
875	 0.877325128970645 
876	 0.877481020598179 
877	 0.877542524972059 
878	 0.877774616784351 
879	 0.878192548789055 
880	 0.878617669821038 
881	 0.878815086323703 
882	 0.878786590191464 
883	 0.878940270157073 
884	 0.879228412295645 
885	 0.879304634848051 
886	 0.879612337282806 
887	 0.879881384928561 
888	 0.879997349572261 
889	 0.880115745412058 
890	 0.880229195000461 
891	 0.88051115906539 
892	 0.88094250699342 
893	 0.88115061537451 
894	 0.881282561281219 
895	 0.881420550468715 
896	 0.881608277333257 
897	 0.881817833705905 
898	 0.882088691228358 
899	 0.882317386047511 
900	 0.882449092879382 
901	 0.882787484384534 
902	 0.883140199258166 
903	 0.883480784151465 
904	 0.883846440539957 
905	 0.88413123767414 
906	 0.884328956806635 
907	 0.884524618477252 
908	 0.884822894252366 
909	 0.884990052849021 
910	 0.885211858299587 
911	 0.885591053060838 
912	 0.886079315701692 
913	 0.886441664531639 
914	 0.886774255498083 
915	 0.887100996746129 
916	 0.88728735378408 
917	 0.887606698612635 
918	 0.887895064353367 
919	 0.888062943371034 
920	 0.888324238173493 
921	 0.888528288978191 
922	 0.88866175307748 
923	 0.888793111499359 
924	 0.889102379956512 
925	 0.88938893729113 
926	 0.889605396702078 
927	 0.889750399383069 
928	 0.889769623450438 
929	 0.889929581451161 
930	 0.890161510301692 
931	 0.890294515495149 
932	 0.890396892954315 
933	 0.89065496552828 
934	 0.89098510210399 
935	 0.891198521197163 
936	 0.89144762001828 
937	 0.891574219219684 
938	 0.891586421017359 
939	 0.891639195925646 
940	 0.891947707553353 
941	 0.892252893386031 
942	 0.892433529545486 
943	 0.892540067696274 
944	 0.892625823945002 
945	 0.892644161406006 
946	 0.892594677123346 
947	 0.892546814834429 
948	 0.892650488516109 
949	 0.892788229465895 
950	 0.892843157764043 
951	 0.892774214666656 
952	 0.89276593901291 
953	 0.89269090111826 
954	 0.892586694421747 
955	 0.892783462002997 
956	 0.892975659187281 
957	 0.892934940443618 
958	 0.892665260082228 
959	 0.892512917181691 
960	 0.892403534680094 
961	 0.892390453743233 
962	 0.892452844310825 
963	 0.89239063178601 
964	 0.892566069099105 
965	 0.892852451107663 
966	 0.893131990491208 
967	 0.893622542496604 
968	 0.893826092963622 
969	 0.894002402974406 
970	 0.894406414938937 
971	 0.8946958901481 
972	 0.895122520491311 
973	 0.895464746416059 
974	 0.89557160786756 
975	 0.895870882389286 
976	 0.896257831653281 
977	 0.896498589856846 
978	 0.89645684482747 
979	 0.896383374310119 
980	 0.896690717561481 
981	 0.897051675097039 
982	 0.897134951827937 
983	 0.897511747185601 
984	 0.897728688032638 
985	 0.897910145093381 
986	 0.898238242576648 
987	 0.898387778601938 
988	 0.898506001440038 
989	 0.898589389552962 
990	 0.898613988443324 
991	 0.898655649246935 
992	 0.898761560463358 
993	 0.898921123103884 
994	 0.899075317853138 
995	 0.899108025068298 
996	 0.899072840969848 
997	 0.899138470023245 
998	 0.89941390215667 
999	 0.899705859750106 
1000	 0.899905404321968 
1001	 0.878894714875713 
1002	 0.878914808816422 
1003	 0.878908801633893 
1004	 0.878938739459963 
1005	 0.879053262329248 
1006	 0.879080047111881 
1007	 0.879069836423209 
1008	 0.879073108203049 
1009	 0.879079435215471 
1010	 0.879062461064792 
1011	 0.879006132869108 
1012	 0.878976040517811 
1013	 0.878949747027754 
1014	 0.878922970567917 
1015	 0.878920416400952 
1016	 0.878906860713366 
1017	 0.878846941277412 
1018	 0.878761309578167 
1019	 0.878630288358523 
1020	 0.878510574528759 
1021	 0.878473184045233 
1022	 0.878455626944823 
1023	 0.878492363752757 
1024	 0.878626182562131 
1025	 0.878728666959255 
1026	 0.878835800386529 
1027	 0.878965212466154 
1028	 0.879108621801915 
1029	 0.879273293334081 
1030	 0.879453511429551 
1031	 0.879621896455777 
1032	 0.8797767295256 
1033	 0.87993167611497 
1034	 0.880200759136501 
1035	 0.880486228918032 
1036	 0.880724860985009 
1037	 0.881051198304924 
1038	 0.881260935152094 
1039	 0.881308815939854 
1040	 0.881490327684475 
1041	 0.881685421492917 
1042	 0.881894164759069 
1043	 0.882170906275412 
1044	 0.88242387767665 
1045	 0.882636389950515 
1046	 0.882870791156703 
1047	 0.883002389870719 
1048	 0.88316339609838 
1049	 0.883309818045351 
1050	 0.883446066399374 
1051	 0.88363767670241 
1052	 0.883748311605759 
1053	 0.883825905941164 
1054	 0.883843537648231 
1055	 0.883879620084184 
1056	 0.883885703110394 
1057	 0.883927318730717 
1058	 0.884013478780861 
1059	 0.884039690894298 
1060	 0.884013738189039 
1061	 0.883962683607371 
1062	 0.883891239829904 
1063	 0.883824270991825 
1064	 0.883777141552402 
1065	 0.88371014215213 
1066	 0.883642615753094 
1067	 0.883557464289569 
1068	 0.883369963255683 
1069	 0.883162082628953 
1070	 0.882993571156137 
1071	 0.882791880297633 
1072	 0.882609697476346 
1073	 0.882545269978922 
1074	 0.882441685751747 
1075	 0.882266286290423 
1076	 0.882067508394946 
1077	 0.881858513350613 
1078	 0.881706542050016 
1079	 0.881525033117307 
1080	 0.881389581207053 
1081	 0.881264267894542 
1082	 0.881083855639062 
1083	 0.880972293454551 
1084	 0.88080718148087 
1085	 0.880591095347721 
1086	 0.880438007673597 
1087	 0.880306776878428 
1088	 0.880168872968591 
1089	 0.88007303423229 
1090	 0.879976846866691 
1091	 0.879811987526605 
1092	 0.879655834401985 
1093	 0.879520841936094 
1094	 0.879417648324089 
1095	 0.879321055741875 
1096	 0.879184192286041 
1097	 0.879048146177776 
1098	 0.878919881199436 
1099	 0.878800822329791 
1100	 0.878728800482363 
1101	 0.878698253370765 
1102	 0.878661058737065 
1103	 0.878611810079155 
1104	 0.878572861478811 
1105	 0.878530931298315 
1106	 0.8784630830789 
1107	 0.878411705525697 
1108	 0.878380344898039 
1109	 0.87837243705617 
1110	 0.878351107378012 
1111	 0.87831008385516 
1112	 0.878297775715052 
1113	 0.878280304863365 
1114	 0.878303248824241 
1115	 0.878348440938558 
1116	 0.878364333820308 
1117	 0.878400104779018 
1118	 0.878452115919419 
1119	 0.878520916802397 
1120	 0.87856426634598 
1121	 0.878616018246316 
1122	 0.878668553476488 
1123	 0.878683291689829 
1124	 0.878687239001652 
1125	 0.878711120339842 
1126	 0.878686634292504 
1127	 0.878653826169722 
1128	 0.878631903247636 
1129	 0.878598674246565 
1130	 0.878584874289928 
1131	 0.878532518090172 
1132	 0.87846053463502 
1133	 0.878412246502328 
1134	 0.878352788545548 
1135	 0.878252358449354 
1136	 0.8781421831044 
1137	 0.878011444223891 
1138	 0.877813069921296 
1139	 0.877639361554123 
1140	 0.87746662901086 
1141	 0.87733170906065 
1142	 0.877144286052266 
1143	 0.876971896779041 
1144	 0.876814118175303 
1145	 0.876575946251391 
1146	 0.876359440579697 
1147	 0.876148204901877 
1148	 0.875872863875522 
1149	 0.875637802355668 
1150	 0.87539873560356 
1151	 0.875131971245363 
1152	 0.874836763795906 
1153	 0.874525094164416 
1154	 0.874195553915575 
1155	 0.87382067549831 
1156	 0.87345674299613 
1157	 0.873118939189414 
1158	 0.872744621653229 
1159	 0.872345359128037 
1160	 0.871931746541935 
1161	 0.871499688585499 
1162	 0.871023808686491 
1163	 0.870577745501746 
1164	 0.870120881297714 
1165	 0.869652635448676 
1166	 0.869234210208757 
1167	 0.868801753793865 
1168	 0.868374394293542 
1169	 0.867975579058707 
1170	 0.86760513324112 
1171	 0.867223519993939 
1172	 0.866848842955349 
1173	 0.866495673443067 
1174	 0.866133662120959 
1175	 0.865817216544465 
1176	 0.865558550080602 
1177	 0.865270135020455 
1178	 0.864984823248501 
1179	 0.864711574400473 
1180	 0.864460284462519 
1181	 0.864154002050609 
1182	 0.863847481283957 
1183	 0.863559651794431 
1184	 0.86320753162056 
1185	 0.862861068917127 
1186	 0.86251549195138 
1187	 0.862157051207094 
1188	 0.861823494461491 
1189	 0.861480639069542 
1190	 0.861180962484898 
1191	 0.860900779549037 
1192	 0.860653717387949 
1193	 0.860446462103187 
1194	 0.860248271506329 
1195	 0.860093702300867 
1196	 0.859917825895395 
1197	 0.859744034992424 
1198	 0.859561314861601 
1199	 0.859380772779177 
1200	 0.85925813373644 
1201	 0.859171279890707 
1202	 0.859065561897434 
1203	 0.858961531364202 
1204	 0.858863080710085 
1205	 0.85877573504949 
1206	 0.858679081135437 
1207	 0.858623280327812 
1208	 0.858588750109309 
1209	 0.858572133524407 
1210	 0.858557238025824 
1211	 0.858598026994278 
1212	 0.85866010082134 
1213	 0.858780330284193 
1214	 0.858958565456646 
1215	 0.859166756031541 
1216	 0.859390234577491 
1217	 0.859689389820952 
1218	 0.860056345779091 
1219	 0.86045227487046 
1220	 0.860874658141415 
1221	 0.861384220351681 
1222	 0.861861785382304 
1223	 0.86235183224391 
1224	 0.862858432994796 
1225	 0.863407200369293 
1226	 0.863896599901946 
1227	 0.864382243755202 
1228	 0.864842127385057 
1229	 0.865269117061528 
1230	 0.865693519023152 
1231	 0.866130266803302 
1232	 0.866512330812292 
1233	 0.866859709832772 
1234	 0.867181554024672 
1235	 0.867451844991011 
1236	 0.867721851519381 
1237	 0.86797774406519 
1238	 0.868222935099702 
1239	 0.868459254139122 
1240	 0.868676547984894 
1241	 0.868895086005357 
1242	 0.869055850234769 
1243	 0.869211432170032 
1244	 0.869337294766386 
1245	 0.869475302229424 
1246	 0.869595970879097 
1247	 0.869724630395074 
1248	 0.869849342151129 
1249	 0.869990637159 
1250	 0.870148626427295 
1251	 0.870279649961492 
1252	 0.870408935849257 
1253	 0.870540788696105 
1254	 0.870645764917636 
1255	 0.870769271234366 
1256	 0.870926166133739 
1257	 0.871057456768056 
1258	 0.871174651606363 
1259	 0.871291148035733 
1260	 0.871408172237853 
1261	 0.871507937614541 
1262	 0.871580847667162 
1263	 0.871677751429196 
1264	 0.871767083079674 
1265	 0.871837580326243 
1266	 0.871939570086366 
1267	 0.872076513415378 
1268	 0.872165491647449 
1269	 0.872247627754462 
1270	 0.872321902527791 
1271	 0.872379931364999 
1272	 0.872416557667398 
1273	 0.872465052223048 
1274	 0.872459413886092 
1275	 0.872386017486185 
1276	 0.872340631688209 
1277	 0.872296478491294 
1278	 0.872221823786739 
1279	 0.872154934746867 
1280	 0.872048415803672 
1281	 0.871882597655246 
1282	 0.87172946704428 
1283	 0.871564703676985 
1284	 0.871395285069197 
1285	 0.871221670849422 
1286	 0.871051977243571 
1287	 0.870858739633966 
1288	 0.870653098789611 
1289	 0.870438205404118 
1290	 0.870212680473886 
1291	 0.869972318536948 
1292	 0.869723991157158 
1293	 0.869457792792603 
1294	 0.869178494575025 
1295	 0.868879680855232 
1296	 0.868542120358116 
1297	 0.868240346768282 
1298	 0.867934597569817 
1299	 0.86764008154099 
1300	 0.867375594352862 
1301	 0.8670981105977 
1302	 0.866814225478065 
1303	 0.866531781440002 
1304	 0.866255808079602 
1305	 0.865973069994398 
1306	 0.865686700777757 
1307	 0.865396959126984 
1308	 0.865114519360771 
1309	 0.864802557256328 
1310	 0.864520216010922 
1311	 0.864234908488049 
1312	 0.86397484108529 
1313	 0.863728185819835 
1314	 0.863502010893719 
1315	 0.863293990257989 
1316	 0.863095203944024 
1317	 0.862923343998323 
1318	 0.862737688072571 
1319	 0.862542665951575 
1320	 0.862376589021505 
1321	 0.862221893470001 
1322	 0.862072019319978 
1323	 0.861949976284267 
1324	 0.861815466357616 
1325	 0.861680639343193 
1326	 0.861538167313916 
1327	 0.86137607961696 
1328	 0.861243061494249 
1329	 0.861119414284193 
1330	 0.860997907881166 
1331	 0.860886261390867 
1332	 0.860793705589205 
1333	 0.860732671621188 
1334	 0.860640046683491 
1335	 0.860531703132159 
1336	 0.860434217079374 
1337	 0.860311967993066 
1338	 0.860156768833274 
1339	 0.859994158030133 
1340	 0.859831057318823 
1341	 0.859654980664698 
1342	 0.85943700372675 
1343	 0.859255431645007 
1344	 0.85910529212812 
1345	 0.858915860672575 
1346	 0.8587200149544 
1347	 0.8585113554993 
1348	 0.858293784862045 
1349	 0.858045367650805 
1350	 0.857784896040433 
1351	 0.857501247448556 
1352	 0.857188763832391 
1353	 0.856854044918187 
1354	 0.856495639832781 
1355	 0.856130890947915 
1356	 0.855741954377111 
1357	 0.855341858791137 
1358	 0.854895018534514 
1359	 0.854500205229256 
1360	 0.854105025365109 
1361	 0.853740034288265 
1362	 0.853403023757064 
1363	 0.853112990809564 
1364	 0.852811004885494 
1365	 0.852517210423665 
1366	 0.852220032763128 
1367	 0.851933219669102 
1368	 0.851647875402659 
1369	 0.851389362403821 
1370	 0.85105319824157 
1371	 0.850704918780103 
1372	 0.850321314480447 
1373	 0.849878842389326 
1374	 0.849418971886349 
1375	 0.848986409165742 
1376	 0.848429037279167 
1377	 0.847767624102831 
1378	 0.847106262046564 
1379	 0.846357633879333 
1380	 0.845627997750433 
1381	 0.844909927653362 
1382	 0.844140778480319 
1383	 0.843337635159695 
1384	 0.842511993011613 
1385	 0.841707380165683 
1386	 0.840794857498072 
1387	 0.839866968929357 
1388	 0.838839630591515 
1389	 0.837710372566457 
1390	 0.836519488364266 
1391	 0.835284873768039 
1392	 0.833906747113204 
1393	 0.832571470167243 
1394	 0.831176680241135 
1395	 0.829771831597197 
1396	 0.828366360086304 
1397	 0.826920962949938 
1398	 0.825450618099588 
1399	 0.823908528827045 
1400	 0.822364685003415 
1401	 0.820678072507817 
1402	 0.81896307221931 
1403	 0.817003502946629 
1404	 0.814983103721179 
1405	 0.812651688995508 
1406	 0.810104800018832 
1407	 0.807325665525482 
1408	 0.804118541596769 
1409	 0.801105473113492 
1410	 0.797670322381905 
1411	 0.79488537829301 
1412	 0.792049560660739 
1413	 0.79009603357206 
1414	 0.788633528142508 
1415	 0.787783185317818 
1416	 0.78784747214462 
1417	 0.787964457734873 
1418	 0.788768679465126 
1419	 0.78934205568277 
1420	 0.790181985574909 
1421	 0.790723191331383 
1422	 0.791179140721122 
1423	 0.791426697263569 
1424	 0.791447753373798 
1425	 0.791329905210117 
1426	 0.791109491741769 
1427	 0.790794699753073 
1428	 0.790447412099966 
1429	 0.79007322243302 
1430	 0.789682384823698 
1431	 0.789235111789979 
1432	 0.788831768299223 
1433	 0.788422522040578 
1434	 0.788032678466135 
1435	 0.787648309439992 
1436	 0.787297309553202 
1437	 0.786969623823004 
1438	 0.786642468648694 
1439	 0.786344020688908 
1440	 0.786037340265867 
1441	 0.785716109360858 
1442	 0.785424509524949 
1443	 0.785148826831959 
1444	 0.784883005081729 
1445	 0.784629789809796 
1446	 0.784393892208686 
1447	 0.784168142459122 
1448	 0.783963020037604 
1449	 0.783793341267863 
1450	 0.783603484182545 
1451	 0.783417061853644 
1452	 0.783233930459043 
1453	 0.783032841121636 
1454	 0.78285728733756 
1455	 0.782695631562715 
1456	 0.782548437287743 
1457	 0.782430191779373 
1458	 0.782296955482569 
1459	 0.782173700052192 
1460	 0.782041391018759 
1461	 0.781893316903238 
1462	 0.781752331471636 
1463	 0.781607340618469 
1464	 0.781472415110255 
1465	 0.781348468830372 
1466	 0.781212190895431 
1467	 0.781101059967241 
1468	 0.780994777800681 
1469	 0.780906899773302 
1470	 0.780864893271259 
1471	 0.780842985627519 
1472	 0.780872635037632 
1473	 0.780850456444619 
1474	 0.780844337151222 
1475	 0.780791486087619 
1476	 0.780690966769419 
1477	 0.780614350269251 
1478	 0.780540202069535 
1479	 0.780441117969513 
1480	 0.780333835690581 
1481	 0.780216123490896 
1482	 0.780081920432656 
1483	 0.779929488484352 
1484	 0.779777917339893 
1485	 0.779590358006549 
1486	 0.779348380931959 
1487	 0.779145841252352 
1488	 0.778921090259225 
1489	 0.778744478523466 
1490	 0.778604353116244 
1491	 0.77846542627487 
1492	 0.778349914950062 
1493	 0.778238327721395 
1494	 0.778131292391573 
1495	 0.778040322361403 
1496	 0.777953054408748 
1497	 0.777896692187866 
1498	 0.777841126325623 
1499	 0.777840370496034 
1500	 0.777884963755298 
1501	 0.777950342074468 
1502	 0.77805713079035 
1503	 0.778183287697659 
1504	 0.778326775067772 
1505	 0.778502100844963 
1506	 0.778717443612538 
1507	 0.778943491357727 
1508	 0.779203558254189 
1509	 0.779461971841212 
1510	 0.779741650782215 
1511	 0.78000798282507 
1512	 0.78025135378022 
1513	 0.780530863037015 
1514	 0.780828859594471 
1515	 0.781127100472635 
1516	 0.781464020530115 
1517	 0.781780270598752 
1518	 0.782079849268894 
1519	 0.782378013001114 
1520	 0.782666977194791 
1521	 0.782957274019617 
1522	 0.783249503669272 
1523	 0.783567526327547 
1524	 0.783881443873002 
1525	 0.784202458458542 
1526	 0.78454612691199 
1527	 0.784899540013145 
1528	 0.785256467038132 
1529	 0.785630310564044 
1530	 0.786015684013497 
1531	 0.786395861688476 
1532	 0.786812429847235 
1533	 0.787269218253458 
1534	 0.78770450190155 
1535	 0.788146657258547 
1536	 0.788586956024703 
1537	 0.789016681630008 
1538	 0.789471542537346 
1539	 0.789944531578993 
1540	 0.790409252774341 
1541	 0.790890134712541 
1542	 0.791349389728461 
1543	 0.791816313068568 
1544	 0.792228920457925 
1545	 0.792615453331096 
1546	 0.792982717610747 
1547	 0.793317885297948 
1548	 0.793622613237262 
1549	 0.793902875403685 
1550	 0.794172062862693 
1551	 0.794399840981502 
1552	 0.794630829547995 
1553	 0.794873710458929 
1554	 0.795071947529108 
1555	 0.795232502953781 
1556	 0.795394844498987 
1557	 0.795535509899418 
1558	 0.795672376929416 
1559	 0.795804411194647 
1560	 0.79592504120881 
1561	 0.79601725175859 
1562	 0.796136604849552 
1563	 0.796250741636614 
1564	 0.79639136251451 
1565	 0.796558069033306 
1566	 0.796724093374538 
1567	 0.796900525194234 
1568	 0.797086426785215 
1569	 0.797274943869973 
1570	 0.797481628455238 
1571	 0.797707531051658 
1572	 0.797935808036515 
1573	 0.798180435369168 
1574	 0.798420014321731 
1575	 0.798666145425575 
1576	 0.798905571992227 
1577	 0.799141485831654 
1578	 0.7993785649364 
1579	 0.799616250680883 
1580	 0.799847854102261 
1581	 0.800069625167273 
1582	 0.800304557082729 
1583	 0.800531539057133 
1584	 0.800780177757769 
1585	 0.801057237502599 
1586	 0.801320762771902 
1587	 0.801585705685419 
1588	 0.80185432401736 
1589	 0.802122531189917 
1590	 0.802388891741401 
1591	 0.802663401486084 
1592	 0.802931169575147 
1593	 0.803202788974205 
1594	 0.803452587718123 
1595	 0.803688522670158 
1596	 0.803922298413254 
1597	 0.804138128891712 
1598	 0.804351009924158 
1599	 0.804534048478516 
1600	 0.804769257040745 
1601	 0.805027637239993 
1602	 0.805288172650034 
1603	 0.805607629570365 
1604	 0.80588503615929 
1605	 0.806135783358823 
1606	 0.806383753427417 
1607	 0.80662352153436 
1608	 0.806853074339361 
1609	 0.807064492535018 
1610	 0.807282935007868 
1611	 0.807488216957615 
1612	 0.807706462643943 
1613	 0.807955599972423 
1614	 0.808166062062189 
1615	 0.8083594479647 
1616	 0.808552708306079 
1617	 0.808709890325474 
1618	 0.808889622313424 
1619	 0.809109484925496 
1620	 0.809281264117506 
1621	 0.80943574542719 
1622	 0.809578059431377 
1623	 0.809696425423894 
1624	 0.809792973359914 
1625	 0.809865137475241 
1626	 0.809940648235051 
1627	 0.809994364612103 
1628	 0.810044514935643 
1629	 0.810094286886766 
1630	 0.810145624385741 
1631	 0.810174005545321 
1632	 0.810227061710834 
1633	 0.810299386452955 
1634	 0.810374813483912 
1635	 0.810470228230388 
1636	 0.810548022998054 
1637	 0.810638815103459 
1638	 0.810697678256523 
1639	 0.810722773475064 
1640	 0.810757534537095 
1641	 0.810782026653813 
1642	 0.810802026693249 
1643	 0.810829855053439 
1644	 0.810838345159893 
1645	 0.810834106832226 
1646	 0.810809739664927 
1647	 0.810769810557818 
1648	 0.810723186406936 
1649	 0.810681640101344 
1650	 0.810588396206416 
1651	 0.810471599712236 
1652	 0.810323011700981 
1653	 0.810131595925744 
1654	 0.809907337492759 
1655	 0.809638597302371 
1656	 0.809369851822627 
1657	 0.80907911982334 
1658	 0.808759055998857 
1659	 0.808456575680203 
1660	 0.808082320585563 
1661	 0.807666639823054 
1662	 0.807184275852542 
1663	 0.806621934749336 
1664	 0.806035050398755 
1665	 0.805404460241816 
1666	 0.804713744912356 
1667	 0.8039789151403 
1668	 0.803218514281342 
1669	 0.802427091386202 
1670	 0.801545485028551 
1671	 0.800629352621518 
1672	 0.799609570758066 
1673	 0.798486467516458 
1674	 0.79729197489154 
1675	 0.796008544083894 
1676	 0.794704523069775 
1677	 0.79331245883374 
1678	 0.791918841180057 
1679	 0.790494229597891 
1680	 0.78904448152261 
1681	 0.787571014952981 
1682	 0.78605205687709 
1683	 0.784512437730324 
1684	 0.782949396876928 
1685	 0.781323361631724 
1686	 0.779716638862475 
1687	 0.778071433145352 
1688	 0.776462203330047 
1689	 0.774848775934185 
1690	 0.773284937504053 
1691	 0.771743102391007 
1692	 0.77029352165001 
1693	 0.7689354201055 
1694	 0.767539135891717 
1695	 0.766192349877889 
1696	 0.764792151560857 
1697	 0.763385651509881 
1698	 0.761890069122318 
1699	 0.760397216155798 
1700	 0.758819547097631 
1701	 0.757139317006175 
1702	 0.755439754143893 
1703	 0.753659843891029 
1704	 0.751886697290459 
1705	 0.750026336545715 
1706	 0.74823669887998 
1707	 0.746628040806019 
1708	 0.74507146240774 
1709	 0.743597259992163 
1710	 0.742204685263469 
1711	 0.740780354577867 
1712	 0.739460920315238 
1713	 0.738113743134784 
1714	 0.736735941047819 
1715	 0.735431628464656 
1716	 0.73400396105786 
1717	 0.732578155015615 
1718	 0.731181473485679 
1719	 0.729710507645073 
1720	 0.728306357583317 
1721	 0.726958715494001 
1722	 0.725627864863878 
1723	 0.724461847068511 
1724	 0.723398914661869 
1725	 0.722468422934682 
1726	 0.72177309300414 
1727	 0.721254510788933 
1728	 0.721010421897367 
1729	 0.721098684242596 
1730	 0.721472330979246 
1731	 0.722113517219291 
1732	 0.723058791055475 
1733	 0.724171947586325 
1734	 0.725508343015531 
1735	 0.727063562386624 
1736	 0.728655449287312 
1737	 0.730330909984061 
1738	 0.732017629730929 
1739	 0.733501482586138 
1740	 0.734923166394043 
1741	 0.736208786750598 
1742	 0.737386768903704 
1743	 0.738406885295262 
1744	 0.739315269378231 
1745	 0.740041124874775 
1746	 0.740567724758097 
1747	 0.740953882903836 
1748	 0.741158951878965 
1749	 0.74127798474688 
1750	 0.741234618991214 
1751	 0.741117016736562 
1752	 0.740886940093035 
1753	 0.740633266358372 
1754	 0.740263359837358 
1755	 0.739925212485427 
1756	 0.739559450979978 
1757	 0.739159083207647 
1758	 0.73876227474204 
1759	 0.738384071469985 
1760	 0.738105401466738 
1761	 0.737949984169626 
1762	 0.737935748294532 
1763	 0.738112610353086 
1764	 0.738388367195148 
1765	 0.738846167216326 
1766	 0.739492815420889 
1767	 0.740232442254338 
1768	 0.741131187577023 
1769	 0.742112393663843 
1770	 0.74309179504696 
1771	 0.744134906312012 
1772	 0.745162325323804 
1773	 0.746172270374798 
1774	 0.747202056237215 
1775	 0.748129399606068 
1776	 0.749064515722575 
1777	 0.749985325929877 
1778	 0.750751702821574 
1779	 0.751502052165971 
1780	 0.752173651201117 
1781	 0.752712033920543 
1782	 0.753239764543486 
1783	 0.753718122514471 
1784	 0.754183719554011 
1785	 0.754581179858204 
1786	 0.754955804326848 
1787	 0.755286632173635 
1788	 0.755601991095738 
1789	 0.755926574955761 
1790	 0.75621906738419 
1791	 0.756476577058727 
1792	 0.756704754335214 
1793	 0.756875081600391 
1794	 0.757036919561462 
1795	 0.757208510960316 
1796	 0.757344060858529 
1797	 0.757467744939161 
1798	 0.757601112587995 
1799	 0.757752465980392 
1800	 0.757910872242742 
1801	 0.758867383348954 
1802	 0.759167693585889 
1803	 0.759505953938896 
1804	 0.759920999513954 
1805	 0.760363971714718 
1806	 0.760785805680993 
1807	 0.761263687947363 
1808	 0.761678174678993 
1809	 0.762079303195115 
1810	 0.762436544223714 
1811	 0.762787793180602 
1812	 0.763080239706977 
1813	 0.763301960623603 
1814	 0.763556002061906 
1815	 0.763735130526447 
1816	 0.763873646787655 
1817	 0.764008771323529 
1818	 0.764095514674405 
1819	 0.764208513991108 
1820	 0.764308148824975 
1821	 0.764427326288567 
1822	 0.764547676437154 
1823	 0.764695545638723 
1824	 0.764859562630111 
1825	 0.765026743071914 
1826	 0.765175689690519 
1827	 0.765342195947709 
1828	 0.765455537139779 
1829	 0.765533857870469 
1830	 0.765621358267802 
1831	 0.765689515549374 
1832	 0.765744891950067 
1833	 0.765818650626467 
1834	 0.765884524500356 
1835	 0.765924052184221 
1836	 0.765989345488739 
1837	 0.766053044097091 
1838	 0.766095985751685 
1839	 0.766175934411397 
1840	 0.766282606081182 
1841	 0.766385909432531 
1842	 0.766500086533278 
1843	 0.766646784918461 
1844	 0.766780677748172 
1845	 0.766881425784501 
1846	 0.766963819839411 
1847	 0.767014858469819 
1848	 0.767040671145323 
1849	 0.767022171409187 
1850	 0.76700291606536 
1851	 0.766979134500531 
1852	 0.766922381814715 
1853	 0.766819352429661 
1854	 0.766723024391058 
1855	 0.766557089725 
1856	 0.766350641953027 
1857	 0.76613400083114 
1858	 0.765840263739504 
1859	 0.76551890122873 
1860	 0.765170438050283 
1861	 0.764759252554828 
1862	 0.764303553425573 
1863	 0.763821490480431 
1864	 0.763232761017022 
1865	 0.762568094224199 
1866	 0.761803594575579 
1867	 0.760894599031086 
1868	 0.759910756914444 
1869	 0.758859134972075 
1870	 0.757739799331437 
1871	 0.75652350532886 
1872	 0.755315135313422 
1873	 0.75404443579336 
1874	 0.75276294403695 
1875	 0.751534082232371 
1876	 0.750163628562615 
1877	 0.748883322706447 
1878	 0.747489622874165 
1879	 0.745944646768143 
1880	 0.744465536581115 
1881	 0.742799382767351 
1882	 0.740979607781308 
1883	 0.739108812214146 
1884	 0.737089145630701 
1885	 0.734732840474429 
1886	 0.732328030516086 
1887	 0.729659967036958 
1888	 0.726773316708681 
1889	 0.724026890503714 
1890	 0.721028450749158 
1891	 0.717957323205162 
1892	 0.714848906934413 
1893	 0.711448490327834 
1894	 0.707752173271711 
1895	 0.704073468876921 
1896	 0.700173159906559 
1897	 0.696100606596716 
1898	 0.692348150874882 
1899	 0.688389167046884 
1900	 0.684436934029461 
1901	 0.680563862997184 
1902	 0.676308956055835 
1903	 0.672181083678114 
1904	 0.668126520832513 
1905	 0.664041053126488 
1906	 0.660024019922234 
1907	 0.656436265877166 
1908	 0.65280018984442 
1909	 0.649297625889593 
1910	 0.645967589056919 
1911	 0.642434872734615 
1912	 0.639099723843009 
1913	 0.635780782423316 
1914	 0.632437448913756 
1915	 0.629338749327684 
1916	 0.626466186182138 
1917	 0.623521696684997 
1918	 0.620734424958096 
1919	 0.618123228417953 
1920	 0.615341087825594 
1921	 0.612745740467604 
1922	 0.610199823115963 
1923	 0.607631120927146 
1924	 0.605367096254671 
1925	 0.603142442793253 
1926	 0.600999060332752 
1927	 0.59900940352128 
1928	 0.597053728912906 
1929	 0.595107564899912 
1930	 0.593320398192683 
1931	 0.591638462774894 
1932	 0.590047695500065 
1933	 0.588675837314037 
1934	 0.587363770409181 
1935	 0.586163884543333 
1936	 0.585109843155681 
1937	 0.584095095974422 
1938	 0.583127270313912 
1939	 0.582309236467126 
1940	 0.581590559776524 
1941	 0.580948292322734 
1942	 0.580465338018768 
1943	 0.58009615376299 
1944	 0.579807168494652 
1945	 0.579637928234001 
1946	 0.57957603927761 
1947	 0.579578554689114 
1948	 0.579671295652388 
1949	 0.579835175372037 
1950	 0.580044291206918 
1951	 0.580315854637438 
1952	 0.580649095662354 
1953	 0.581024867751287 
1954	 0.581479413127356 
1955	 0.582050724383104 
1956	 0.582631405446881 
1957	 0.583266080595369 
1958	 0.583960562487653 
1959	 0.584611355070254 
1960	 0.585307974715469 
1961	 0.586033209937062 
1962	 0.586774524854797 
1963	 0.587552343222628 
1964	 0.588389457349459 
1965	 0.589206794948298 
1966	 0.590054787044331 
1967	 0.590908570457207 
1968	 0.591681556079517 
1969	 0.592444637822245 
1970	 0.593182674986569 
1971	 0.593922941818147 
1972	 0.594754314285298 
1973	 0.595547533730038 
1974	 0.596342100848391 
1975	 0.597161797783765 
1976	 0.597959127265424 
1977	 0.598727674798881 
1978	 0.599523399661672 
1979	 0.600323551027556 
1980	 0.601109013803509 
1981	 0.601994392746252 
1982	 0.602843626138888 
1983	 0.603728377491193 
1984	 0.604660398649903 
1985	 0.605480716042049 
1986	 0.60631005085754 
1987	 0.607120569588119 
1988	 0.60787230232221 
1989	 0.608679427194103 
1990	 0.609502683728333 
1991	 0.610315243555919 
1992	 0.61114325541605 
1993	 0.612020363911068 
1994	 0.612777845967033 
1995	 0.613569297321973 
1996	 0.614353278602019 
1997	 0.615093627717948 
1998	 0.615904681393314 
1999	 0.616763681599209 
2000	 0.617594054007492 
2001	 0.618478890171354 
2002	 0.619298773762852 
2003	 0.620080841331238 
2004	 0.620858354648618 
2005	 0.621574812023351 
2006	 0.622331919767987 
2007	 0.623109285311648 
2008	 0.623881034863546 
2009	 0.624644558201673 
2010	 0.625432128769722 
2011	 0.626138262100416 
2012	 0.626820136368248 
2013	 0.627463991297853 
2014	 0.628070627190814 
2015	 0.628646189013382 
2016	 0.629212925341922 
2017	 0.629688139586515 
2018	 0.630123688284582 
2019	 0.630488533120961 
2020	 0.630775109317182 
2021	 0.631004505222783 
2022	 0.631180124891674 
2023	 0.631265683598921 
2024	 0.631265311860641 
2025	 0.63121378803488 
2026	 0.631080788609514 
2027	 0.63086653674693 
2028	 0.630595616581703 
2029	 0.630228392560259 
2030	 0.629842072105853 
2031	 0.629393616633853 
2032	 0.628926682430938 
2033	 0.628402111632667 
2034	 0.627886666035409 
2035	 0.627322608738182 
2036	 0.626779054322119 
2037	 0.62627713638635 
2038	 0.625810247710778 
2039	 0.62543203606215 
2040	 0.6251226570838 
2041	 0.62486629529407 
2042	 0.62464739205123 
2043	 0.624547608001514 
2044	 0.624525868438087 
2045	 0.624593280580264 
2046	 0.624793381739171 
2047	 0.625027564648892 
2048	 0.625312967500681 
2049	 0.625671860549214 
2050	 0.626123314491482 
2051	 0.626596586302468 
2052	 0.627137009999154 
2053	 0.62776665534403 
2054	 0.62839199913962 
2055	 0.629044495607386 
2056	 0.629746389954766 
2057	 0.630455983631697 
2058	 0.631267869900334 
2059	 0.632166590466608 
2060	 0.633076727646033 
2061	 0.634083854008468 
2062	 0.635064174116859 
2063	 0.63603792681952 
2064	 0.637056519535477 
2065	 0.63810468761447 
2066	 0.639143340365616 
2067	 0.640317394438531 
2068	 0.641431271024028 
2069	 0.642549506477003 
2070	 0.643729750762815 
2071	 0.644814178190686 
2072	 0.645838616681895 
2073	 0.646862425129293 
2074	 0.647827587794915 
2075	 0.648825432280369 
2076	 0.649848929103564 
2077	 0.650808642695211 
2078	 0.651810162209379 
2079	 0.652696946021119 
2080	 0.653472948380159 
2081	 0.654246669452361 
2082	 0.654959063347794 
2083	 0.65562443129322 
2084	 0.65636987577318 
2085	 0.657023820324474 
2086	 0.657645092177784 
2087	 0.658262321358348 
2088	 0.658792648408673 
2089	 0.659235475458034 
2090	 0.659667767261083 
2091	 0.660047680634139 
2092	 0.660409536064223 
2093	 0.660729164319118 
2094	 0.661036006904609 
2095	 0.661330292800341 
2096	 0.66158747778744 
2097	 0.661818663777369 
2098	 0.662021695629564 
2099	 0.662181873262956 
2100	 0.662305757679133 
2101	 0.66239686862152 
2102	 0.66244453353348 
2103	 0.662478626063591 
2104	 0.662474530372867 
2105	 0.66246643555884 
2106	 0.662443734888317 
2107	 0.662402494904667 
2108	 0.662354909442128 
2109	 0.662268430772501 
2110	 0.662135859184767 
2111	 0.662013683625847 
2112	 0.661870907929632 
2113	 0.661719028914893 
2114	 0.6615617970618 
2115	 0.661402218563339 
2116	 0.66122738650149 
2117	 0.661061613606607 
2118	 0.660855083271527 
2119	 0.660644360458376 
2120	 0.660400948961249 
2121	 0.66009498516442 
2122	 0.659831357925692 
2123	 0.659590327465708 
2124	 0.659310836384548 
2125	 0.659038653535533 
2126	 0.65872714186555 
2127	 0.658386475310866 
2128	 0.658009053438215 
2129	 0.657617900896408 
2130	 0.65717616093643 
2131	 0.656694908620944 
2132	 0.65616564948944 
2133	 0.65564987399967 
2134	 0.654990027638932 
2135	 0.654201409260685 
2136	 0.653429281069828 
2137	 0.652529268188691 
2138	 0.65148493847548 
2139	 0.650453622008694 
2140	 0.649371608006505 
2141	 0.648243615391823 
2142	 0.647079056766433 
2143	 0.645858918915898 
2144	 0.644537890909326 
2145	 0.643282783488382 
2146	 0.641946705488991 
2147	 0.64072827606848 
2148	 0.639624702831616 
2149	 0.638468893560672 
2150	 0.637381530504411 
2151	 0.63623443761684 
2152	 0.635017438195458 
2153	 0.633842351174535 
2154	 0.632630337371326 
2155	 0.63136355362144 
2156	 0.630148354149196 
2157	 0.628945989536982 
2158	 0.627698009004617 
2159	 0.626495022960021 
2160	 0.625167050069696 
2161	 0.623721536048919 
2162	 0.622353125594573 
2163	 0.620905449414519 
2164	 0.619566204503273 
2165	 0.618303749052473 
2166	 0.617036120243238 
2167	 0.615789264137335 
2168	 0.614591182719354 
2169	 0.613366675482593 
2170	 0.612278684363387 
2171	 0.611276771653248 
2172	 0.61033928131008 
2173	 0.609498046441818 
2174	 0.60872568957878 
2175	 0.608020355426203 
2176	 0.607396073977397 
2177	 0.606832740675093 
2178	 0.606366765025708 
2179	 0.605926063638887 
2180	 0.605521612460823 
2181	 0.605208271241072 
2182	 0.60497225647627 
2183	 0.604777091075116 
2184	 0.604648588875929 
2185	 0.604586095750804 
2186	 0.604574570242504 
2187	 0.604634238706284 
2188	 0.604817561079104 
2189	 0.604978697549709 
2190	 0.605156412025571 
2191	 0.605399716395439 
2192	 0.605688202920848 
2193	 0.606000319401306 
2194	 0.606431086951066 
2195	 0.606793097557346 
2196	 0.607147143059985 
2197	 0.607482096154211 
2198	 0.607756419872775 
2199	 0.608032561134615 
2200	 0.608259949851634 
2201	 0.608431747615127 
2202	 0.608639681680514 
2203	 0.608828399249137 
2204	 0.609012690595807 
2205	 0.609234384519171 
2206	 0.609374216071684 
2207	 0.609448146834385 
2208	 0.609551245183075 
2209	 0.609633769346027 
2210	 0.609698593652249 
2211	 0.609794282332282 
2212	 0.609807991598091 
2213	 0.609736132123611 
2214	 0.609698809526471 
2215	 0.6096035306318 
2216	 0.609566889788014 
2217	 0.60960518550109 
2218	 0.609580587559801 
2219	 0.609552585377387 
2220	 0.609510317775214 
2221	 0.609445597824752 
2222	 0.609344455852701 
2223	 0.609258001595301 
2224	 0.609085603464993 
2225	 0.608832895999961 
2226	 0.608544591182954 
2227	 0.608207262204812 
2228	 0.607814893091073 
2229	 0.607389259928183 
2230	 0.60693320191519 
2231	 0.606392542933298 
2232	 0.605812718087914 
2233	 0.605110725397719 
2234	 0.604354838791174 
2235	 0.603428052708141 
2236	 0.602382553549975 
2237	 0.601217716225073 
2238	 0.599847943260511 
2239	 0.59847627632643 
2240	 0.597032781009758 
2241	 0.595485402116888 
2242	 0.593920844467361 
2243	 0.592190528435367 
2244	 0.590346499464316 
2245	 0.588358863486063 
2246	 0.586128178612776 
2247	 0.583927896642456 
2248	 0.581650790731423 
2249	 0.579300857760463 
2250	 0.576956586596968 
2251	 0.574550602207252 
2252	 0.571794409449333 
2253	 0.569085673268084 
2254	 0.56622149549148 
2255	 0.563248830706813 
2256	 0.560589543960695 
2257	 0.5578313700769 
2258	 0.555155243881169 
2259	 0.552603587907778 
2260	 0.54998531579442 
2261	 0.54730380978943 
2262	 0.544770157963011 
2263	 0.542216873620731 
2264	 0.539881381843637 
2265	 0.537701821246499 
2266	 0.535567839785419 
2267	 0.533657596523535 
2268	 0.531622704594909 
2269	 0.529569539377455 
2270	 0.527579525205751 
2271	 0.525497105047194 
2272	 0.523623281861909 
2273	 0.521904022066766 
2274	 0.520190994606327 
2275	 0.518642325201691 
2276	 0.517035477001216 
2277	 0.51540324168131 
2278	 0.51384024155415 
2279	 0.512285323953739 
2280	 0.510764098586794 
2281	 0.509358335917882 
2282	 0.507850929255068 
2283	 0.506309552643291 
2284	 0.504790736849381 
2285	 0.503090319522798 
2286	 0.501491826259442 
2287	 0.499922833545569 
2288	 0.498344538130201 
2289	 0.496922478481038 
2290	 0.495511828532497 
2291	 0.494140721835349 
2292	 0.492702862794364 
2293	 0.491001395119869 
2294	 0.489250673817171 
2295	 0.487308853816367 
2296	 0.485234719898238 
2297	 0.483250934267196 
2298	 0.481307343378755 
2299	 0.479203241730812 
2300	 0.477046044083677 
2301	 0.474858810136236 
2302	 0.472462767514931 
2303	 0.470378659383391 
2304	 0.468253580139845 
2305	 0.466515788874045 
2306	 0.464947231193135 
2307	 0.463779413721211 
2308	 0.46285668048987 
2309	 0.46249017461323 
2310	 0.462503665426109 
2311	 0.463080947657453 
2312	 0.464365998503376 
2313	 0.465802089833252 
2314	 0.467777023713019 
2315	 0.469841214193636 
2316	 0.472299245770029 
2317	 0.474578045743704 
2318	 0.477221635003057 
2319	 0.479338576618455 
2320	 0.481302826765435 
2321	 0.482870904562788 
2322	 0.484040347979194 
2323	 0.485017650127289 
2324	 0.485596833434637 
2325	 0.486096492785127 
2326	 0.486391017907876 
2327	 0.486536227761021 
2328	 0.48648117088563 
2329	 0.486338950853935 
2330	 0.486023070253582 
2331	 0.485625918596783 
2332	 0.485146535686921 
2333	 0.484539836238374 
2334	 0.483739487877303 
2335	 0.482745850453835 
2336	 0.481499870046005 
2337	 0.480134229493335 
2338	 0.478721028524461 
2339	 0.477040520258839 
2340	 0.475287834621868 
2341	 0.473402312006534 
2342	 0.471303853187238 
2343	 0.469266185912051 
2344	 0.46729867263606 
2345	 0.465431237689397 
2346	 0.46389269848435 
2347	 0.462632943144325 
2348	 0.461645848399416 
2349	 0.461191824294667 
2350	 0.461223757106712 
2351	 0.461746976601291 
2352	 0.462864583765525 
2353	 0.464433091383337 
2354	 0.46612034312661 
2355	 0.468087443812707 
2356	 0.470027629190889 
2357	 0.471902496891706 
2358	 0.473902903893803 
2359	 0.47559036702061 
2360	 0.477104423893004 
2361	 0.478389331172828 
2362	 0.479342993904179 
2363	 0.480163731761047 
2364	 0.480806961950118 
2365	 0.48131995133478 
2366	 0.481782222270958 
2367	 0.482130470300045 
2368	 0.482496024760165 
2369	 0.482817484668621 
2370	 0.483012929356331 
2371	 0.483209952375004 
2372	 0.483357301047796 
2373	 0.483492553809117 
2374	 0.48357989729792 
2375	 0.483629575013758 
2376	 0.483662640696916 
2377	 0.483577455227726 
2378	 0.483549697103785 
2379	 0.483596473531367 
2380	 0.483623236733266 
2381	 0.483675517816949 
2382	 0.483709860744576 
2383	 0.483764498685869 
2384	 0.483736024454289 
2385	 0.483651124497951 
2386	 0.483595893246168 
2387	 0.483509667641589 
2388	 0.483440693033264 
2389	 0.483368999277816 
2390	 0.483334886072007 
2391	 0.483289071640097 
2392	 0.483283503171629 
2393	 0.483368531148548 
2394	 0.48336546681005 
2395	 0.483388950549105 
2396	 0.483323043854798 
2397	 0.483150601940215 
2398	 0.483005196799299 
2399	 0.482792293313838 
2400	 0.482622365279109 
2401	 0.482495053629206 
2402	 0.482349844922723 
2403	 0.48216519558618 
2404	 0.482028773323836 
2405	 0.481932618547761 
2406	 0.481922751481027 
2407	 0.4819461245434 
2408	 0.481962249651428 
2409	 0.481845795639643 
2410	 0.481735158987456 
2411	 0.481819506119074 
2412	 0.481898528243699 
2413	 0.481999921156007 
2414	 0.481993224442061 
2415	 0.481837600059562 
2416	 0.48180236305733 
2417	 0.481797707768141 
2418	 0.48178668102377 
2419	 0.481848485199462 
2420	 0.481820168918684 
2421	 0.481704440190348 
2422	 0.481611870016879 
2423	 0.481418526987608 
2424	 0.481151978486919 
2425	 0.481027783949369 
2426	 0.480820889027871 
2427	 0.480615116794483 
2428	 0.480640354024031 
2429	 0.4804444894059 
2430	 0.480225248893198 
2431	 0.480123694383275 
2432	 0.479806105330847 
2433	 0.479429140111079 
2434	 0.479047420471256 
2435	 0.478655823607878 
2436	 0.478323590616846 
2437	 0.477984353852829 
2438	 0.47768223090381 
2439	 0.477494918000295 
2440	 0.477002624672026 
2441	 0.476229139209528 
2442	 0.47555126040483 
2443	 0.474718515737937 
2444	 0.473928190582395 
2445	 0.473558801305612 
2446	 0.47297877542511 
2447	 0.472121234746895 
2448	 0.471468868591313 
2449	 0.470612949611612 
2450	 0.469699739046996 
2451	 0.469069115685977 
2452	 0.468308684767534 
2453	 0.46731322505627 
2454	 0.466401189867676 
2455	 0.465490271501431 
2456	 0.464606075181567 
2457	 0.463827901669056 
2458	 0.463041220962036 
2459	 0.462364124693509 
2460	 0.461741125841247 
2461	 0.461137013366966 
2462	 0.460563464967602 
2463	 0.460145952955566 
2464	 0.459637098783783 
2465	 0.458884695596819 
2466	 0.458220697498183 
2467	 0.457505148625087 
2468	 0.456811938142334 
2469	 0.456383172931001 
2470	 0.456132567433089 
2471	 0.455739072237035 
2472	 0.455012152217972 
2473	 0.454410340529698 
2474	 0.453918405709682 
2475	 0.453180346879978 
2476	 0.45264211718531 
2477	 0.452209779726485 
2478	 0.451613119738237 
2479	 0.451395879773868 
2480	 0.451111917659529 
2481	 0.450718095042161 
2482	 0.450226725382142 
2483	 0.449896168374747 
2484	 0.449672879065714 
2485	 0.44906078634906 
2486	 0.448343221504195 
2487	 0.447708650349784 
2488	 0.447046952169971 
2489	 0.446787067380167 
2490	 0.446578577264507 
2491	 0.446086673879391 
2492	 0.445664299559144 
2493	 0.445163572066018 
2494	 0.444599297764135 
2495	 0.444314775584444 
2496	 0.44413186097391 
2497	 0.443635381928892 
2498	 0.443631421805765 
2499	 0.443835539680256 
2500	 0.443244474958688 
