Wavelength	ProbetaAcolman00006.asd
350	 0.843125663625899 
351	 0.838960075424875 
352	 0.822111718869992 
353	 0.798975016456216 
354	 0.813545536160871 
355	 0.811008331393372 
356	 0.800999663078995 
357	 0.800683415195548 
358	 0.802739209718125 
359	 0.807392128033886 
360	 0.808583376993862 
361	 0.798388094546142 
362	 0.775376444783031 
363	 0.762222117586361 
364	 0.765177717682138 
365	 0.768351662019903 
366	 0.763294995057269 
367	 0.757924210418678 
368	 0.759045940615682 
369	 0.755532702574678 
370	 0.75500168817194 
371	 0.757914837706269 
372	 0.759709378059875 
373	 0.752933542696725 
374	 0.747311256074164 
375	 0.747067446031544 
376	 0.74605024424592 
377	 0.741679254781634 
378	 0.736574200942545 
379	 0.73416617700563 
380	 0.735880288207844 
381	 0.733812883349726 
382	 0.728270776489745 
383	 0.724487723793967 
384	 0.725017112423 
385	 0.728772157951447 
386	 0.731190829109691 
387	 0.723229579807084 
388	 0.720794915484066 
389	 0.720545149288351 
390	 0.716621171752502 
391	 0.711920894465207 
392	 0.714197623139598 
393	 0.71886301995489 
394	 0.7152603413295 
395	 0.715720952552144 
396	 0.715800020384914 
397	 0.712488034774824 
398	 0.707786581634704 
399	 0.708394681592762 
400	 0.710217919942304 
401	 0.70774994932251 
402	 0.702404578072135 
403	 0.70123726845666 
404	 0.704519164254278 
405	 0.707370898665954 
406	 0.705028877423724 
407	 0.702102996430643 
408	 0.701310122259041 
409	 0.699120321685423 
410	 0.703190810547856 
411	 0.706884683832654 
412	 0.702938907874097 
413	 0.703247275396403 
414	 0.703362511961932 
415	 0.702581040128242 
416	 0.703884977117795 
417	 0.704523113834279 
418	 0.705359387876417 
419	 0.706551885302682 
420	 0.705130192407186 
421	 0.704290562284941 
422	 0.704531344698794 
423	 0.705154678517533 
424	 0.705482210955329 
425	 0.705295331141957 
426	 0.704582020869283 
427	 0.703478375041392 
428	 0.703954124093346 
429	 0.70413156400598 
430	 0.702694422513772 
431	 0.702361632444043 
432	 0.701586926792642 
433	 0.700688435677142 
434	 0.700771657648674 
435	 0.700441117064496 
436	 0.70058691195348 
437	 0.701114701648711 
438	 0.700100423426305 
439	 0.699095976636182 
440	 0.69854618032624 
441	 0.698429043490149 
442	 0.698298052278438 
443	 0.69769424873079 
444	 0.696669770848083 
445	 0.695694973649117 
446	 0.695447750926865 
447	 0.695008078521335 
448	 0.693853553322268 
449	 0.692816499087315 
450	 0.691516209264562 
451	 0.690133087053971 
452	 0.689029242920039 
453	 0.688489752202731 
454	 0.687392915043854 
455	 0.685758657820906 
456	 0.684861905814798 
457	 0.683236695529634 
458	 0.681507765624485 
459	 0.680284601626004 
460	 0.678819056422419 
461	 0.677395258773227 
462	 0.67598417327094 
463	 0.674402393015134 
464	 0.67270486856981 
465	 0.670792342650212 
466	 0.668687990412065 
467	 0.666604066323739 
468	 0.664741456125857 
469	 0.662772502973082 
470	 0.660442716483005 
471	 0.658429736838584 
472	 0.65621890104878 
473	 0.653884354697108 
474	 0.651908052303776 
475	 0.649512268529809 
476	 0.647215610662341 
477	 0.645239068770951 
478	 0.642709911412886 
479	 0.640361199397366 
480	 0.638484965964362 
481	 0.637026613506229 
482	 0.635022083958287 
483	 0.633002858387063 
484	 0.631332386485549 
485	 0.630052879216411 
486	 0.62897238292292 
487	 0.627745000104124 
488	 0.626304249612592 
489	 0.625472132098521 
490	 0.624679608569985 
491	 0.623955645646753 
492	 0.62360607383034 
493	 0.62313952153776 
494	 0.622451406718757 
495	 0.621715011659275 
496	 0.621477946022607 
497	 0.62107798087379 
498	 0.620587942483332 
499	 0.620268816880049 
500	 0.62021423447379 
501	 0.619796725642148 
502	 0.618993571947412 
503	 0.618308018403984 
504	 0.617586128033105 
505	 0.616803171364181 
506	 0.615981576391195 
507	 0.615236280365059 
508	 0.614346671746382 
509	 0.613287150430937 
510	 0.61217649976177 
511	 0.611457772040541 
512	 0.610524121077909 
513	 0.609346636460258 
514	 0.608724903640009 
515	 0.608010662854972 
516	 0.607406411695751 
517	 0.607151277487811 
518	 0.606844475611923 
519	 0.606866294194903 
520	 0.607194562747153 
521	 0.607556229066984 
522	 0.608254992513249 
523	 0.609256084468949 
524	 0.610461375848537 
525	 0.611741524586475 
526	 0.613236930369061 
527	 0.614880561400626 
528	 0.61661752869256 
529	 0.618900506728784 
530	 0.621156992213189 
531	 0.623290485846711 
532	 0.625747601320817 
533	 0.628261185250976 
534	 0.630726400708036 
535	 0.633126115037152 
536	 0.635612175354248 
537	 0.638004256855226 
538	 0.640170708568463 
539	 0.642036608723338 
540	 0.643705689861042 
541	 0.645111437744261 
542	 0.646197481374624 
543	 0.64695016365335 
544	 0.647314161223407 
545	 0.647413347183368 
546	 0.647346972640444 
547	 0.646837890984502 
548	 0.646085636026972 
549	 0.64515891007186 
550	 0.643998535214455 
551	 0.642679135336834 
552	 0.641287844225324 
553	 0.639912740816207 
554	 0.638621185922952 
555	 0.63759822359219 
556	 0.636861037221968 
557	 0.636365394437011 
558	 0.636306701520007 
559	 0.636525501467987 
560	 0.637000124629767 
561	 0.637935320361065 
562	 0.639275978605897 
563	 0.640905089687686 
564	 0.642722353323048 
565	 0.644736250548875 
566	 0.647052918231767 
567	 0.649739715998276 
568	 0.652845089592635 
569	 0.656609832479864 
570	 0.660827064284255 
571	 0.665357086411822 
572	 0.670323773833263 
573	 0.675736977198658 
574	 0.681527604945302 
575	 0.687640685508908 
576	 0.694250780695109 
577	 0.701130233773061 
578	 0.708204299551558 
579	 0.715607089287292 
580	 0.723221407394222 
581	 0.730905654800114 
582	 0.738623403523618 
583	 0.746618380286035 
584	 0.754676733465309 
585	 0.762819505145327 
586	 0.771207266373587 
587	 0.779830224977727 
588	 0.788348238485847 
589	 0.796634955191951 
590	 0.804966095498206 
591	 0.812935750848261 
592	 0.820641497253924 
593	 0.8283022002803 
594	 0.835910655095773 
595	 0.843123523591349 
596	 0.849962667395662 
597	 0.856766784194065 
598	 0.863475223257064 
599	 0.869774810163342 
600	 0.875604986407199 
601	 0.881594808853613 
602	 0.887328400119925 
603	 0.892637683221087 
604	 0.897523977649922 
605	 0.902501106838714 
606	 0.907078563812201 
607	 0.911123328880442 
608	 0.915032097089597 
609	 0.919164306016565 
610	 0.923031327018463 
611	 0.926237235817059 
612	 0.929388171583558 
613	 0.932668693641838 
614	 0.935851229229966 
615	 0.938511629101846 
616	 0.941104614700235 
617	 0.943810196208032 
618	 0.946547734225887 
619	 0.94885304729376 
620	 0.951014595585057 
621	 0.95324046888871 
622	 0.955581550033034 
623	 0.957463783762782 
624	 0.959180788521626 
625	 0.961030388448877 
626	 0.963221761003686 
627	 0.96488870537427 
628	 0.966299821749765 
629	 0.967833516892793 
630	 0.969607197517861 
631	 0.9711052937349 
632	 0.972378903349987 
633	 0.973720668169182 
634	 0.97510626604753 
635	 0.976402742251737 
636	 0.977550415079202 
637	 0.978592463810912 
638	 0.979723725465975 
639	 0.980945878938885 
640	 0.982145432051693 
641	 0.98301069420859 
642	 0.983982946768924 
643	 0.985067759231066 
644	 0.986005358850199 
645	 0.986809113700359 
646	 0.987606777216942 
647	 0.988471142749591 
648	 0.989367520499363 
649	 0.990128813523948 
650	 0.990819131674276 
651	 0.991550097375875 
652	 0.99228301107489 
653	 0.992998826401527 
654	 0.993684078491656 
655	 0.994334099516921 
656	 0.995018342344126 
657	 0.99565378254986 
658	 0.996218540920498 
659	 0.996887873619976 
660	 0.997372292865058 
661	 0.997823339826399 
662	 0.998468950402682 
663	 0.998975960835904 
664	 0.999523885020234 
665	 1.00013439483593 
666	 1.000650670762 
667	 1.00123477349415 
668	 1.00178425825786 
669	 1.00222173517657 
670	 1.00265887102881 
671	 1.0031403995973 
672	 1.00365541031351 
673	 1.00415669585287 
674	 1.00458491220269 
675	 1.00497126776255 
676	 1.00537280311642 
677	 1.00586285722093 
678	 1.00625119174975 
679	 1.00658457497132 
680	 1.00694544516538 
681	 1.00733167347358 
682	 1.00780531836836 
683	 1.00826550156946 
684	 1.00855495383106 
685	 1.00882729269943 
686	 1.0091761292209 
687	 1.0096061473666 
688	 1.01001414287458 
689	 1.01025390788118 
690	 1.0105062920753 
691	 1.0109168819026 
692	 1.01116020618566 
693	 1.01159363915584 
694	 1.01212946628418 
695	 1.01243138798059 
696	 1.01270425844001 
697	 1.01305407119749 
698	 1.01347350784786 
699	 1.01380387378766 
700	 1.01400387610309 
701	 1.01427222557023 
702	 1.01476282466409 
703	 1.0152093828556 
704	 1.01546812833573 
705	 1.01564583121498 
706	 1.01598491193216 
707	 1.01618472903987 
708	 1.01646344230906 
709	 1.01687436144177 
710	 1.01708565868756 
711	 1.01735742826367 
712	 1.01762301219689 
713	 1.0177855762095 
714	 1.0180158838362 
715	 1.01826982800064 
716	 1.01852048061034 
717	 1.01875005241572 
718	 1.01884847369321 
719	 1.01905756216027 
720	 1.01942473980547 
721	 1.01959386329016 
722	 1.01977638102583 
723	 1.01992397332158 
724	 1.02000392838214 
725	 1.02034865040406 
726	 1.02064704202541 
727	 1.02085749026539 
728	 1.02111862382598 
729	 1.0211952062663 
730	 1.02131985482162 
731	 1.02160849990186 
732	 1.02189455709793 
733	 1.02208346852423 
734	 1.02225808419704 
735	 1.02248962397569 
736	 1.02257370201957 
737	 1.02261863832352 
738	 1.0227352066457 
739	 1.02299482802061 
740	 1.02315245259289 
741	 1.02329489829066 
742	 1.0234702846937 
743	 1.0236040138861 
744	 1.02385679778332 
745	 1.02410289596312 
746	 1.02422515189705 
747	 1.02440582214641 
748	 1.02456840900953 
749	 1.02472632972815 
750	 1.02494071602774 
751	 1.02523116286832 
752	 1.02540999624726 
753	 1.02547335685446 
754	 1.02567196787738 
755	 1.02579638154553 
756	 1.02587942186938 
757	 1.02600477914054 
758	 1.02623852671283 
759	 1.02648130754986 
760	 1.02672290619783 
761	 1.02697605533262 
762	 1.02711574915132 
763	 1.02718736636502 
764	 1.02727131756425 
765	 1.02745857268434 
766	 1.02760168627003 
767	 1.02778619672643 
768	 1.02804579523545 
769	 1.028175802203 
770	 1.02844896621555 
771	 1.02875885386471 
772	 1.0289092349482 
773	 1.02899548499923 
774	 1.0291652611907 
775	 1.02938133160793 
776	 1.02947136032487 
777	 1.02956518815875 
778	 1.0297325838261 
779	 1.02999335648873 
780	 1.03030840387961 
781	 1.03042643007497 
782	 1.03048239786191 
783	 1.03063426860722 
784	 1.03066810340058 
785	 1.03079413770235 
786	 1.0310142789781 
787	 1.03121327815272 
788	 1.03141756977686 
789	 1.03155216002165 
790	 1.03166594513904 
791	 1.03194493651147 
792	 1.03207036236575 
793	 1.03215170800705 
794	 1.0322961404903 
795	 1.03238251629008 
796	 1.0324210624811 
797	 1.03250068923711 
798	 1.03269891896931 
799	 1.03288149638664 
800	 1.0330652713704 
801	 1.03323121491152 
802	 1.03334022867731 
803	 1.03348161118176 
804	 1.03355605901475 
805	 1.03362430241329 
806	 1.03401248350061 
807	 1.03417664389906 
808	 1.03415521728206 
809	 1.0341278504608 
810	 1.03418314849067 
811	 1.0344324735908 
812	 1.03476020428889 
813	 1.03496650112093 
814	 1.03506868386105 
815	 1.03507087686084 
816	 1.03512948747112 
817	 1.03547126724257 
818	 1.03556344521406 
819	 1.03555147969347 
820	 1.03560357054863 
821	 1.0357405135356 
822	 1.03591610079139 
823	 1.03607455659328 
824	 1.03619666625631 
825	 1.03639927950431 
826	 1.03641580654414 
827	 1.0363318049215 
828	 1.03638517591102 
829	 1.03663428414465 
830	 1.03679503283542 
831	 1.03682740351722 
832	 1.03691551900027 
833	 1.03698930373443 
834	 1.03703827785689 
835	 1.03707637473073 
836	 1.03714282198503 
837	 1.03721237661546 
838	 1.037291158705 
839	 1.03738677349253 
840	 1.03749745497252 
841	 1.03755292819665 
842	 1.03757716029664 
843	 1.03762005751764 
844	 1.03763242216945 
845	 1.03772041689059 
846	 1.03777132778312 
847	 1.03759269008936 
848	 1.0377820093821 
849	 1.03799629556924 
850	 1.03807185989214 
851	 1.03820620187259 
852	 1.03830106777151 
853	 1.03836425613758 
854	 1.03838859333433 
855	 1.03827622381929 
856	 1.03837650602319 
857	 1.03861234449365 
858	 1.0388029752706 
859	 1.03897916524 
860	 1.03896085361112 
861	 1.03885367412829 
862	 1.03888767725379 
863	 1.03904155838109 
864	 1.03920159976085 
865	 1.03928699893599 
866	 1.03927854068072 
867	 1.03936603278449 
868	 1.03937257683993 
869	 1.03925939688016 
870	 1.03924114500762 
871	 1.03941186526766 
872	 1.03959650611515 
873	 1.03965581719684 
874	 1.03967534505708 
875	 1.03964890450263 
876	 1.03967369860179 
877	 1.0397911239108 
878	 1.03974798545842 
879	 1.03972920949971 
880	 1.03976129747394 
881	 1.03978953617941 
882	 1.0397924544413 
883	 1.03979679543909 
884	 1.03986189923965 
885	 1.040026562126 
886	 1.0399887146068 
887	 1.03993728944172 
888	 1.03996707545688 
889	 1.03999453127156 
890	 1.03997484808719 
891	 1.03996206041459 
892	 1.03995171140776 
893	 1.03981196325273 
894	 1.03965404791581 
895	 1.03959285961931 
896	 1.03968195953694 
897	 1.03985995012859 
898	 1.03971554985883 
899	 1.03951482133597 
900	 1.03960569916706 
901	 1.03966511112155 
902	 1.03970095551328 
903	 1.03971893266669 
904	 1.03973538615136 
905	 1.0398007559354 
906	 1.0398626022195 
907	 1.03990246295783 
908	 1.03993038053084 
909	 1.03993928635599 
910	 1.03986990443541 
911	 1.03984098917008 
912	 1.04009047855566 
913	 1.04011165295681 
914	 1.04002869860736 
915	 1.0400037982451 
916	 1.04009696722712 
917	 1.04013881211659 
918	 1.04015170190741 
919	 1.04018969409289 
920	 1.04028421726392 
921	 1.04033863583342 
922	 1.04044920229533 
923	 1.0406631542997 
924	 1.04078407302016 
925	 1.04086229499434 
926	 1.04085269806816 
927	 1.04074044964094 
928	 1.04068188692558 
929	 1.04067368855828 
930	 1.04065574767848 
931	 1.04058870484238 
932	 1.04062334464456 
933	 1.04078938614617 
934	 1.04095463490547 
935	 1.04095156150885 
936	 1.04088657231972 
937	 1.04105888151605 
938	 1.04132251787266 
939	 1.04130685552183 
940	 1.04142059317742 
941	 1.04138944357388 
942	 1.04118453848114 
943	 1.04104688046387 
944	 1.04118504879936 
945	 1.04134443050439 
946	 1.04137341078352 
947	 1.04130530488675 
948	 1.04118618435693 
949	 1.04096862186729 
950	 1.04076398477424 
951	 1.0408553976987 
952	 1.0409563156882 
953	 1.04087791684027 
954	 1.04065623166776 
955	 1.0405988178165 
956	 1.04033829875835 
957	 1.04017960163388 
958	 1.04019469601543 
959	 1.03985187961946 
960	 1.03957895181425 
961	 1.03931155887477 
962	 1.03898422765623 
963	 1.03874772286557 
964	 1.03868968733179 
965	 1.03870916600876 
966	 1.03871847349896 
967	 1.03878501885648 
968	 1.038993935579 
969	 1.03928582062902 
970	 1.0395393665655 
971	 1.03959669356199 
972	 1.03984556978341 
973	 1.04003492797417 
974	 1.03995011234123 
975	 1.04004089831656 
976	 1.04017027967575 
977	 1.04015501401859 
978	 1.03999740076128 
979	 1.04033541515259 
980	 1.04025484531035 
981	 1.04007193039415 
982	 1.04022697696276 
983	 1.04012356509676 
984	 1.04004052047622 
985	 1.04009385862032 
986	 1.0402726867542 
987	 1.04037601231149 
988	 1.04026304178557 
989	 1.04021954047699 
990	 1.04050268964467 
991	 1.04076496694758 
992	 1.04057037932356 
993	 1.04049927719473 
994	 1.04099525888927 
995	 1.04071281264432 
996	 1.04057532421519 
997	 1.0407546390067 
998	 1.04103830531998 
999	 1.04095501541997 
1000	 1.04098554760365 
1001	 1.04050290900352 
1002	 1.04070360866954 
1003	 1.04081142702533 
1004	 1.04086083370466 
1005	 1.04106346391391 
1006	 1.04105885347363 
1007	 1.04079091102592 
1008	 1.04073347799413 
1009	 1.0407349293632 
1010	 1.04072799713402 
1011	 1.04077981985803 
1012	 1.04075903492409 
1013	 1.04073643147397 
1014	 1.04068306351049 
1015	 1.04054022042972 
1016	 1.04047969609603 
1017	 1.04042481156829 
1018	 1.04033362233741 
1019	 1.04035350292353 
1020	 1.04036103906649 
1021	 1.04038579037144 
1022	 1.04046442175214 
1023	 1.04051205369679 
1024	 1.04054237186593 
1025	 1.04058099546301 
1026	 1.04062125668485 
1027	 1.04066436056686 
1028	 1.04068783755406 
1029	 1.04074049105089 
1030	 1.04089683010082 
1031	 1.04100250219781 
1032	 1.04111044770724 
1033	 1.0412651588799 
1034	 1.04128308185542 
1035	 1.04125501115423 
1036	 1.04133071538361 
1037	 1.04146370226264 
1038	 1.04153412058448 
1039	 1.04165527379563 
1040	 1.04173800981312 
1041	 1.041699493843 
1042	 1.04177253213374 
1043	 1.04191306873153 
1044	 1.04205716663484 
1045	 1.04219005996225 
1046	 1.04225267380794 
1047	 1.04226094462143 
1048	 1.04230095971636 
1049	 1.04231713834442 
1050	 1.04234104315541 
1051	 1.04242811793576 
1052	 1.04247538507682 
1053	 1.04253990252678 
1054	 1.04267590444964 
1055	 1.04273211426138 
1056	 1.04273083510735 
1057	 1.04275127713191 
1058	 1.0427404304504 
1059	 1.04273591831606 
1060	 1.04276813407313 
1061	 1.04281120377564 
1062	 1.04291832532398 
1063	 1.04297772607089 
1064	 1.04299099630897 
1065	 1.04305243424531 
1066	 1.04305170086183 
1067	 1.04301784801269 
1068	 1.04302422832303 
1069	 1.04300056735104 
1070	 1.04295973811267 
1071	 1.04288347947225 
1072	 1.04284278933889 
1073	 1.04279876099751 
1074	 1.04273929402372 
1075	 1.04275796127482 
1076	 1.04278005185728 
1077	 1.04277869302738 
1078	 1.0428210972174 
1079	 1.04286513752077 
1080	 1.04289529786998 
1081	 1.04290777250181 
1082	 1.04289647197441 
1083	 1.04285008967731 
1084	 1.04278009787874 
1085	 1.0427544599322 
1086	 1.0427554562027 
1087	 1.04279556531139 
1088	 1.0428088589971 
1089	 1.04284219920934 
1090	 1.0428912838442 
1091	 1.0428828896597 
1092	 1.04287678446221 
1093	 1.0428700387426 
1094	 1.04282732164946 
1095	 1.04282074452659 
1096	 1.04282587310838 
1097	 1.04278830783114 
1098	 1.04274606545019 
1099	 1.04270685860563 
1100	 1.04268912265896 
1101	 1.04270618362022 
1102	 1.04273842713244 
1103	 1.04275137847118 
1104	 1.04276296632917 
1105	 1.04274423186369 
1106	 1.04273414198095 
1107	 1.0426962772235 
1108	 1.04263971272603 
1109	 1.04263264374287 
1110	 1.04259301727741 
1111	 1.04253729588601 
1112	 1.04250451414543 
1113	 1.04242858145637 
1114	 1.0423613854383 
1115	 1.04231318469331 
1116	 1.042274059989 
1117	 1.04223079561525 
1118	 1.04218033029271 
1119	 1.0421386535843 
1120	 1.04208618503584 
1121	 1.04202438939533 
1122	 1.04194826188536 
1123	 1.04188179369877 
1124	 1.04177208750963 
1125	 1.0416153171426 
1126	 1.0414220603792 
1127	 1.04125384650595 
1128	 1.04104600207558 
1129	 1.04083289534911 
1130	 1.04067046078509 
1131	 1.04047325548783 
1132	 1.04024638885917 
1133	 1.04001752137316 
1134	 1.03980438674903 
1135	 1.03957649260107 
1136	 1.03932007363856 
1137	 1.03908969246785 
1138	 1.03888981579191 
1139	 1.03864072553983 
1140	 1.03838367827764 
1141	 1.0381125922085 
1142	 1.03777241302862 
1143	 1.03744473581799 
1144	 1.0371162986312 
1145	 1.03678451163019 
1146	 1.03648254525863 
1147	 1.03613258136646 
1148	 1.03578728897952 
1149	 1.03542157251325 
1150	 1.03505859357365 
1151	 1.03478011497909 
1152	 1.0344476670367 
1153	 1.03412001139504 
1154	 1.03375954867784 
1155	 1.03337399965286 
1156	 1.03295258442675 
1157	 1.03250115937097 
1158	 1.03205378319231 
1159	 1.03156998904106 
1160	 1.03111194317804 
1161	 1.03064820764066 
1162	 1.0301878444069 
1163	 1.02975493819425 
1164	 1.02927441188701 
1165	 1.02878711228444 
1166	 1.02835073186616 
1167	 1.02792314728316 
1168	 1.02752348549059 
1169	 1.02714348755263 
1170	 1.02680862921793 
1171	 1.02645206802171 
1172	 1.02608796898395 
1173	 1.02574471892135 
1174	 1.02540357211993 
1175	 1.02510220992253 
1176	 1.02483556543499 
1177	 1.02456992065799 
1178	 1.0243449981136 
1179	 1.02408264281208 
1180	 1.02381714882968 
1181	 1.0235435336217 
1182	 1.02324589148723 
1183	 1.02298378674091 
1184	 1.02272063953254 
1185	 1.02246408261341 
1186	 1.02224287674025 
1187	 1.02203742102489 
1188	 1.02186438310076 
1189	 1.02172335735391 
1190	 1.02160444653034 
1191	 1.02151336657635 
1192	 1.02143906494877 
1193	 1.02139866233527 
1194	 1.02135372310895 
1195	 1.02133972234986 
1196	 1.02130794203258 
1197	 1.02127697469518 
1198	 1.02121863871697 
1199	 1.02119538738383 
1200	 1.02116079240504 
1201	 1.02111427108272 
1202	 1.02109382721326 
1203	 1.02105293695002 
1204	 1.02102576420499 
1205	 1.02104350064856 
1206	 1.0211014897406 
1207	 1.02115931944709 
1208	 1.02126226264607 
1209	 1.02132856219335 
1210	 1.02136038643465 
1211	 1.02144823170243 
1212	 1.0215364502999 
1213	 1.02166316530137 
1214	 1.0218396924331 
1215	 1.0220266732547 
1216	 1.02222936621767 
1217	 1.02245343616824 
1218	 1.02270577670659 
1219	 1.02296295876587 
1220	 1.0232580276534 
1221	 1.02358454517986 
1222	 1.02392998696388 
1223	 1.02433010939742 
1224	 1.02468271740252 
1225	 1.02504375282036 
1226	 1.02535995526642 
1227	 1.02563362613146 
1228	 1.02592984515627 
1229	 1.0262187321077 
1230	 1.02650523421979 
1231	 1.0268126429686 
1232	 1.02708248070034 
1233	 1.02731129155215 
1234	 1.02755850612418 
1235	 1.02781273024205 
1236	 1.02803883559264 
1237	 1.02827001346973 
1238	 1.02847515889162 
1239	 1.02865382122887 
1240	 1.02880545444297 
1241	 1.02894681841046 
1242	 1.02908679674718 
1243	 1.02923497148931 
1244	 1.02938647892874 
1245	 1.02951745838358 
1246	 1.02965547664315 
1247	 1.02976742944874 
1248	 1.02984461120888 
1249	 1.02993188320624 
1250	 1.03001377907186 
1251	 1.03009613346957 
1252	 1.03017669233189 
1253	 1.0302545642191 
1254	 1.03034403790235 
1255	 1.03040479468929 
1256	 1.03045315989357 
1257	 1.03048945517901 
1258	 1.03048649882343 
1259	 1.03050517958866 
1260	 1.03052923238377 
1261	 1.03055035853842 
1262	 1.03056983625905 
1263	 1.03061492357761 
1264	 1.03062682205565 
1265	 1.03063074052335 
1266	 1.03061548397391 
1267	 1.03058363301347 
1268	 1.03054469201008 
1269	 1.0304926578247 
1270	 1.03042831682242 
1271	 1.03033017928051 
1272	 1.03027371056195 
1273	 1.03022406705094 
1274	 1.03017824780955 
1275	 1.03015605207923 
1276	 1.030134103328 
1277	 1.03012921802519 
1278	 1.0300898998171 
1279	 1.03004473090093 
1280	 1.02999590116208 
1281	 1.02990961681818 
1282	 1.02983677157869 
1283	 1.02978722469789 
1284	 1.02972064175426 
1285	 1.02964566065633 
1286	 1.02954901432513 
1287	 1.029490344791 
1288	 1.02943630252683 
1289	 1.02939397848296 
1290	 1.02939153383462 
1291	 1.02934119395071 
1292	 1.02927034768404 
1293	 1.02920808162107 
1294	 1.02912687407907 
1295	 1.02906115093399 
1296	 1.02901475330512 
1297	 1.02894800069051 
1298	 1.0288666776763 
1299	 1.02879788177747 
1300	 1.02872980131713 
1301	 1.02865808977301 
1302	 1.02861831984442 
1303	 1.02852941791929 
1304	 1.02840610446632 
1305	 1.02828342876513 
1306	 1.02812069567972 
1307	 1.02797776223817 
1308	 1.02786578211501 
1309	 1.02772257035077 
1310	 1.02756322576719 
1311	 1.02739043908983 
1312	 1.02722768010732 
1313	 1.02703745631848 
1314	 1.02688227628933 
1315	 1.02676189092557 
1316	 1.02660905849652 
1317	 1.02644663280548 
1318	 1.02629147416495 
1319	 1.02613084976475 
1320	 1.0259685654479 
1321	 1.02580118298285 
1322	 1.02565323200437 
1323	 1.02551236952499 
1324	 1.02536695991547 
1325	 1.02526796416318 
1326	 1.02510444022235 
1327	 1.02491516532298 
1328	 1.02469599885375 
1329	 1.02442949201711 
1330	 1.02415877533168 
1331	 1.02387188714946 
1332	 1.02356717867362 
1333	 1.02325430224172 
1334	 1.02290687512622 
1335	 1.02256941415607 
1336	 1.0222035312198 
1337	 1.02188285341491 
1338	 1.02159047647753 
1339	 1.02126241028407 
1340	 1.02093732153452 
1341	 1.02061205704033 
1342	 1.02027335043077 
1343	 1.01991758372615 
1344	 1.01960021133843 
1345	 1.01919339643152 
1346	 1.01870744628788 
1347	 1.0182558290568 
1348	 1.01778380464721 
1349	 1.01729735207946 
1350	 1.01681768581127 
1351	 1.01631556357585 
1352	 1.01579331914057 
1353	 1.01524369677705 
1354	 1.01466926134966 
1355	 1.01409814652781 
1356	 1.01348539505475 
1357	 1.01289422717596 
1358	 1.01228995642437 
1359	 1.01173091021291 
1360	 1.01119409569169 
1361	 1.0106767444626 
1362	 1.01017255355643 
1363	 1.00971451258226 
1364	 1.00923795994039 
1365	 1.00875687556474 
1366	 1.00829336934978 
1367	 1.00785822693935 
1368	 1.00738384896025 
1369	 1.00691268862155 
1370	 1.00640137439843 
1371	 1.00585776577105 
1372	 1.00531260609737 
1373	 1.00476443300838 
1374	 1.00416765967407 
1375	 1.0035519777944 
1376	 1.00289162590481 
1377	 1.00217376322514 
1378	 1.00144116138516 
1379	 1.00066988296814 
1380	 0.999892851355602 
1381	 0.999097597552582 
1382	 0.998271843609938 
1383	 0.997447227823819 
1384	 0.996560669155609 
1385	 0.995661392684397 
1386	 0.994680170052048 
1387	 0.99365585250558 
1388	 0.99256973005151 
1389	 0.991417028683757 
1390	 0.990213883712098 
1391	 0.988984710876735 
1392	 0.98763247419327 
1393	 0.986334128763411 
1394	 0.984941086423914 
1395	 0.983526911686219 
1396	 0.982088672295497 
1397	 0.980627276232712 
1398	 0.979142317949785 
1399	 0.977562303151728 
1400	 0.975975800691542 
1401	 0.974242493492552 
1402	 0.972456690433712 
1403	 0.970436097712361 
1404	 0.968355930198537 
1405	 0.965979144039159 
1406	 0.963371961472722 
1407	 0.960568028786533 
1408	 0.957358254204581 
1409	 0.954361951456445 
1410	 0.950978495533402 
1411	 0.948228904796843 
1412	 0.945468205727689 
1413	 0.943532638656532 
1414	 0.94206267693747 
1415	 0.94118435769754 
1416	 0.941183697505517 
1417	 0.941229414421831 
1418	 0.941959989198032 
1419	 0.942422367034597 
1420	 0.943125615183955 
1421	 0.94351345134296 
1422	 0.9437726792152 
1423	 0.943831074412519 
1424	 0.94365088311234 
1425	 0.943329440182058 
1426	 0.942924493316725 
1427	 0.942405417577676 
1428	 0.941904345148015 
1429	 0.941396151831984 
1430	 0.940852140434833 
1431	 0.940271848994815 
1432	 0.939707639211298 
1433	 0.939101136079407 
1434	 0.938555822874183 
1435	 0.938031763833526 
1436	 0.937531872707707 
1437	 0.937049020283899 
1438	 0.936611389958575 
1439	 0.936216003666481 
1440	 0.935817780799294 
1441	 0.935468589420665 
1442	 0.935081522776123 
1443	 0.934662989023336 
1444	 0.934283259769668 
1445	 0.933904483932162 
1446	 0.933552031327483 
1447	 0.933229868467488 
1448	 0.932916198113043 
1449	 0.932608602256047 
1450	 0.932324213951221 
1451	 0.932080023283 
1452	 0.931810555999066 
1453	 0.931542732821711 
1454	 0.931278373059143 
1455	 0.930996612595621 
1456	 0.930733591702343 
1457	 0.930482612588579 
1458	 0.93024143344612 
1459	 0.930017331805151 
1460	 0.929785669167141 
1461	 0.929545423843519 
1462	 0.92933109593437 
1463	 0.929113865281447 
1464	 0.928921992718882 
1465	 0.928774325931488 
1466	 0.928617202245021 
1467	 0.928458094045964 
1468	 0.928316536263226 
1469	 0.928173556720649 
1470	 0.928076178771693 
1471	 0.92797601491455 
1472	 0.927907175915188 
1473	 0.927811859686596 
1474	 0.927713932904413 
1475	 0.927609697131102 
1476	 0.927506353852222 
1477	 0.927378177838543 
1478	 0.927252586263247 
1479	 0.927079550961594 
1480	 0.92687367392477 
1481	 0.926653321069339 
1482	 0.926383936840003 
1483	 0.926148616223218 
1484	 0.92590727300556 
1485	 0.925675921906104 
1486	 0.925461794452465 
1487	 0.925240827604121 
1488	 0.925020904523723 
1489	 0.924795330675383 
1490	 0.924577029647939 
1491	 0.924338303843871 
1492	 0.924077105988107 
1493	 0.923831777643417 
1494	 0.92355728766783 
1495	 0.923339787362082 
1496	 0.923142844098244 
1497	 0.922981693402504 
1498	 0.922854439095749 
1499	 0.92276101292222 
1500	 0.922696021631357 
1501	 0.922667769064086 
1502	 0.922680311219938 
1503	 0.922723588051693 
1504	 0.922811569839191 
1505	 0.922910620293344 
1506	 0.923041296866349 
1507	 0.923185182138755 
1508	 0.923346449983019 
1509	 0.923519978515127 
1510	 0.923722261761408 
1511	 0.92391930729481 
1512	 0.924128992040796 
1513	 0.924332185473012 
1514	 0.924519227359385 
1515	 0.92473053319086 
1516	 0.924936902076977 
1517	 0.92517282278127 
1518	 0.925468163858071 
1519	 0.925727722904466 
1520	 0.925968838384861 
1521	 0.926234436453775 
1522	 0.926480395136841 
1523	 0.926747440236229 
1524	 0.927014082077232 
1525	 0.927302562286747 
1526	 0.927593719971769 
1527	 0.927878357716801 
1528	 0.928175759751105 
1529	 0.928492338749013 
1530	 0.928813321212498 
1531	 0.929125822404733 
1532	 0.929474807787048 
1533	 0.929856650080381 
1534	 0.930227508902573 
1535	 0.930610121504213 
1536	 0.930991041487171 
1537	 0.931377457106849 
1538	 0.931752605801598 
1539	 0.932131599002542 
1540	 0.932498303831894 
1541	 0.932849780815338 
1542	 0.933207558533105 
1543	 0.933571322336096 
1544	 0.93391341395398 
1545	 0.934246980319661 
1546	 0.934573736761127 
1547	 0.934902963796639 
1548	 0.935183740128008 
1549	 0.935460234660091 
1550	 0.935676677714483 
1551	 0.935835042151786 
1552	 0.935977557530344 
1553	 0.93606831915383 
1554	 0.936177529078538 
1555	 0.936254126408637 
1556	 0.936365571597062 
1557	 0.936510161813552 
1558	 0.936618480452904 
1559	 0.936728768327318 
1560	 0.936819670048506 
1561	 0.936876689414174 
1562	 0.936946836840573 
1563	 0.937005859777428 
1564	 0.937086962185699 
1565	 0.937177477592674 
1566	 0.937268428113102 
1567	 0.937365826596879 
1568	 0.937479432516955 
1569	 0.937602853279858 
1570	 0.937723822710651 
1571	 0.937857071959434 
1572	 0.937996016057736 
1573	 0.938117927516205 
1574	 0.938274352514889 
1575	 0.938467774983982 
1576	 0.938649294798824 
1577	 0.938845506029134 
1578	 0.939033302231561 
1579	 0.939216311232522 
1580	 0.93939895194815 
1581	 0.939590193322181 
1582	 0.939762195154409 
1583	 0.939917315194037 
1584	 0.940079344103296 
1585	 0.940227513172598 
1586	 0.940388473514558 
1587	 0.940552417998441 
1588	 0.940729516079553 
1589	 0.940913317920636 
1590	 0.941107759816392 
1591	 0.941331163471533 
1592	 0.941534221342873 
1593	 0.94173020103231 
1594	 0.941930614731294 
1595	 0.942118185115725 
1596	 0.942317973706546 
1597	 0.942516383748886 
1598	 0.942738280017244 
1599	 0.942981978254154 
1600	 0.943220172128573 
1601	 0.943488390966095 
1602	 0.94373122367189 
1603	 0.943974317275529 
1604	 0.944180523651777 
1605	 0.944336158011981 
1606	 0.944525168711355 
1607	 0.944698927675946 
1608	 0.944888009074109 
1609	 0.945118016870467 
1610	 0.945324119779056 
1611	 0.945496619511042 
1612	 0.945704164805598 
1613	 0.94595375873737 
1614	 0.946158426182462 
1615	 0.946371037328807 
1616	 0.946553938772892 
1617	 0.946675260221833 
1618	 0.946818293354162 
1619	 0.946970096866085 
1620	 0.947106874618541 
1621	 0.947238288689912 
1622	 0.947363645503563 
1623	 0.94747283784553 
1624	 0.947586060071083 
1625	 0.947703900788343 
1626	 0.947811108413259 
1627	 0.947910537900312 
1628	 0.948010004225669 
1629	 0.948096401692557 
1630	 0.94819119669387 
1631	 0.94829186224086 
1632	 0.948392860134237 
1633	 0.948503217691588 
1634	 0.948600743186515 
1635	 0.948684101065321 
1636	 0.948779878586327 
1637	 0.948911952776701 
1638	 0.948976847440334 
1639	 0.949020176555369 
1640	 0.949044395508693 
1641	 0.948991183821931 
1642	 0.948971270167906 
1643	 0.948977795710848 
1644	 0.948949028284653 
1645	 0.948904180262861 
1646	 0.948857608148627 
1647	 0.94877538807077 
1648	 0.948720252889264 
1649	 0.948699298495274 
1650	 0.948637998545199 
1651	 0.948610976199031 
1652	 0.948496927820629 
1653	 0.948322050072278 
1654	 0.948114447999864 
1655	 0.947825918933369 
1656	 0.947543663089312 
1657	 0.947234960011556 
1658	 0.946918783134254 
1659	 0.946594151396954 
1660	 0.946253255176111 
1661	 0.945923671363764 
1662	 0.945533417442361 
1663	 0.945097629248289 
1664	 0.944641103204612 
1665	 0.944150307334909 
1666	 0.943614568627437 
1667	 0.943077656623013 
1668	 0.94246287589548 
1669	 0.941802164153381 
1670	 0.941043551312019 
1671	 0.940177582467836 
1672	 0.939297239085821 
1673	 0.938362650934678 
1674	 0.937355138762831 
1675	 0.93630645280303 
1676	 0.935221858216687 
1677	 0.934036703520591 
1678	 0.93287108610331 
1679	 0.931699750764411 
1680	 0.930487746830243 
1681	 0.929227579283297 
1682	 0.927971019696476 
1683	 0.926669746040862 
1684	 0.925446868085644 
1685	 0.924263690172321 
1686	 0.923075412526214 
1687	 0.921912716811029 
1688	 0.920753455693016 
1689	 0.919560583477255 
1690	 0.918437041214019 
1691	 0.917357269669878 
1692	 0.916350194936044 
1693	 0.915399062896677 
1694	 0.914483475456392 
1695	 0.913641488435837 
1696	 0.9127726286279 
1697	 0.911927642521416 
1698	 0.91106149078552 
1699	 0.910231043388045 
1700	 0.909334613037458 
1701	 0.908409159529104 
1702	 0.907460590656365 
1703	 0.906444307244346 
1704	 0.905441127221886 
1705	 0.904420615370024 
1706	 0.903360027753888 
1707	 0.902403961301562 
1708	 0.901417164563042 
1709	 0.900470495528228 
1710	 0.8995852771568 
1711	 0.898607013232577 
1712	 0.897687587677908 
1713	 0.896726615827632 
1714	 0.89568327839603 
1715	 0.894695709924957 
1716	 0.893625318849052 
1717	 0.892596087130385 
1718	 0.891603369282271 
1719	 0.890522867963895 
1720	 0.889501867507003 
1721	 0.888437490927297 
1722	 0.887304428808295 
1723	 0.886306162094307 
1724	 0.885309530621893 
1725	 0.884358038634973 
1726	 0.883552722418587 
1727	 0.882823693785398 
1728	 0.882283189542365 
1729	 0.881948774242503 
1730	 0.881834936615291 
1731	 0.88194579722539 
1732	 0.882272351094855 
1733	 0.882750032636473 
1734	 0.883359576072627 
1735	 0.884103307442939 
1736	 0.884894401884884 
1737	 0.885735978839597 
1738	 0.886666810883206 
1739	 0.887472177264875 
1740	 0.888279455757751 
1741	 0.888952313811603 
1742	 0.889508249574022 
1743	 0.890017802928638 
1744	 0.890437025895196 
1745	 0.890800304179395 
1746	 0.891105108605936 
1747	 0.891342615829352 
1748	 0.891507732406137 
1749	 0.891602899804336 
1750	 0.891607180308493 
1751	 0.891605846906934 
1752	 0.891526874405331 
1753	 0.891462866583604 
1754	 0.891403057804415 
1755	 0.891327910327399 
1756	 0.891237753847165 
1757	 0.89112200397402 
1758	 0.890962118053362 
1759	 0.890824691968341 
1760	 0.890730467975141 
1761	 0.890637445303408 
1762	 0.890605773830716 
1763	 0.890669155862228 
1764	 0.890748506650861 
1765	 0.890963217919766 
1766	 0.891320339034865 
1767	 0.891723685383937 
1768	 0.892248263643969 
1769	 0.892871852697704 
1770	 0.893462939781861 
1771	 0.894058255645815 
1772	 0.894655715148264 
1773	 0.895206827912899 
1774	 0.895794562179403 
1775	 0.896362258408959 
1776	 0.896845094030409 
1777	 0.897281710563031 
1778	 0.897652817507741 
1779	 0.89795964889091 
1780	 0.898238075560045 
1781	 0.898476169842205 
1782	 0.898690762452802 
1783	 0.898876642248088 
1784	 0.899034508958231 
1785	 0.899163219674482 
1786	 0.899285067163738 
1787	 0.899393463149801 
1788	 0.899493272895575 
1789	 0.899597972114394 
1790	 0.899668629455131 
1791	 0.899695962768403 
1792	 0.899719531637729 
1793	 0.899725378624097 
1794	 0.899742407852766 
1795	 0.899777942479795 
1796	 0.899805909973944 
1797	 0.899778292578858 
1798	 0.899787525534491 
1799	 0.899769312807699 
1800	 0.899714404651043 
1801	 0.897385355169269 
1802	 0.897644054530129 
1803	 0.897861699170506 
1804	 0.898093365041595 
1805	 0.898322845495963 
1806	 0.898556320704569 
1807	 0.898811447688822 
1808	 0.899028657491929 
1809	 0.899268238241788 
1810	 0.899438406072932 
1811	 0.899554149285283 
1812	 0.899661951806656 
1813	 0.899720347416202 
1814	 0.89979029234962 
1815	 0.899872600541639 
1816	 0.899940151392384 
1817	 0.899992853187238 
1818	 0.900021731769666 
1819	 0.900082211536224 
1820	 0.900103398395975 
1821	 0.900191834401652 
1822	 0.900323728654217 
1823	 0.900485558128417 
1824	 0.900667289300044 
1825	 0.900864108294387 
1826	 0.901007734178032 
1827	 0.901140337712708 
1828	 0.90124103221056 
1829	 0.901303592958122 
1830	 0.90135980245719 
1831	 0.901382522734572 
1832	 0.901435661899172 
1833	 0.901492243292116 
1834	 0.901504144597908 
1835	 0.901511570609403 
1836	 0.901539899935089 
1837	 0.90154244976978 
1838	 0.901480708405675 
1839	 0.901506193308171 
1840	 0.901571238708397 
1841	 0.901618921903997 
1842	 0.901703610132994 
1843	 0.901780242451323 
1844	 0.901815598725595 
1845	 0.901863980847421 
1846	 0.901877414308617 
1847	 0.901872064458872 
1848	 0.901832830593672 
1849	 0.901737058756514 
1850	 0.90165942466948 
1851	 0.901566457684874 
1852	 0.901485268343036 
1853	 0.901392913675561 
1854	 0.901236267613905 
1855	 0.901002751229248 
1856	 0.900734225231532 
1857	 0.900410245253945 
1858	 0.900061407042653 
1859	 0.89967329134806 
1860	 0.899253884718656 
1861	 0.898780893257111 
1862	 0.898262802603585 
1863	 0.897712950666133 
1864	 0.897117745794271 
1865	 0.896512488856543 
1866	 0.895787520900846 
1867	 0.894927445926459 
1868	 0.894037264215766 
1869	 0.892998784035449 
1870	 0.891912914111481 
1871	 0.890758984033138 
1872	 0.8896027823812 
1873	 0.88836671118466 
1874	 0.887128702418473 
1875	 0.8859443708028 
1876	 0.884561853191109 
1877	 0.883201254326711 
1878	 0.881741228714862 
1879	 0.880127018993165 
1880	 0.878575398190897 
1881	 0.876860295121937 
1882	 0.875017890380552 
1883	 0.873126477483917 
1884	 0.871110558717515 
1885	 0.868809959525321 
1886	 0.866506636921852 
1887	 0.863947385198844 
1888	 0.861205029685592 
1889	 0.858556658542913 
1890	 0.855641069335391 
1891	 0.852696981503965 
1892	 0.849669516731855 
1893	 0.846391806447295 
1894	 0.842835755855742 
1895	 0.83938253555502 
1896	 0.835707559848323 
1897	 0.831828794318005 
1898	 0.828201283565523 
1899	 0.824299421208345 
1900	 0.820387717644458 
1901	 0.816541279417054 
1902	 0.812357391532231 
1903	 0.808356205038614 
1904	 0.804334936673785 
1905	 0.8002317616809 
1906	 0.796139677573251 
1907	 0.792484601887258 
1908	 0.788699451312006 
1909	 0.78505412296815 
1910	 0.781631395948262 
1911	 0.777960022466964 
1912	 0.77448750074076 
1913	 0.771069819666053 
1914	 0.767641333800187 
1915	 0.764454156647239 
1916	 0.761510312790573 
1917	 0.758509822500559 
1918	 0.755658132572202 
1919	 0.752920379597451 
1920	 0.750013667474462 
1921	 0.747332810502539 
1922	 0.744673094073913 
1923	 0.742020901310179 
1924	 0.739706037242892 
1925	 0.737389142332407 
1926	 0.735155987934511 
1927	 0.733075748921333 
1928	 0.731009671020289 
1929	 0.728930473936197 
1930	 0.727031269001967 
1931	 0.725239439984502 
1932	 0.72355047436743 
1933	 0.722103682577341 
1934	 0.720710272860809 
1935	 0.719423184621678 
1936	 0.718235078261192 
1937	 0.717103206157697 
1938	 0.716031809108414 
1939	 0.715097052904585 
1940	 0.714237186820812 
1941	 0.713491731062682 
1942	 0.71291920826526 
1943	 0.712388735390722 
1944	 0.711980849733164 
1945	 0.711718299756743 
1946	 0.711536656831756 
1947	 0.711483093233218 
1948	 0.711508663734319 
1949	 0.711614483971572 
1950	 0.711788585161291 
1951	 0.712052909638432 
1952	 0.712371956871508 
1953	 0.712775897226051 
1954	 0.713193391917395 
1955	 0.713695965316184 
1956	 0.714215636511246 
1957	 0.714767564761007 
1958	 0.715390812498032 
1959	 0.716010512788674 
1960	 0.716673559297411 
1961	 0.717349037920757 
1962	 0.718038165992372 
1963	 0.71875583415342 
1964	 0.719508794039467 
1965	 0.720254643871693 
1966	 0.721013722527696 
1967	 0.72180598775277 
1968	 0.722577501252126 
1969	 0.723373834026012 
1970	 0.724143376852773 
1971	 0.724938605064694 
1972	 0.725766996533893 
1973	 0.726544943630754 
1974	 0.727343859920694 
1975	 0.728178968625617 
1976	 0.728966456197957 
1977	 0.729710926858696 
1978	 0.730502784073367 
1979	 0.731294605190329 
1980	 0.732087308634461 
1981	 0.732964216516756 
1982	 0.733787191699718 
1983	 0.734616536378286 
1984	 0.73547991351378 
1985	 0.736282215170572 
1986	 0.737154119787258 
1987	 0.738002046585806 
1988	 0.73884237862164 
1989	 0.739693015291564 
1990	 0.740553683230411 
1991	 0.741398895623952 
1992	 0.742243668215295 
1993	 0.743115436018266 
1994	 0.743942136882561 
1995	 0.744720956623144 
1996	 0.745476242857513 
1997	 0.74623373208173 
1998	 0.747042415861565 
1999	 0.747870270620544 
2000	 0.748711482058791 
2001	 0.749628044864693 
2002	 0.750472604483185 
2003	 0.7512810066132 
2004	 0.752110635726966 
2005	 0.752913918663937 
2006	 0.753730530519372 
2007	 0.754604735612091 
2008	 0.755410637280597 
2009	 0.756149949919372 
2010	 0.756888193044598 
2011	 0.757524712797651 
2012	 0.758149259720717 
2013	 0.75876246451072 
2014	 0.759360447055496 
2015	 0.759935854032811 
2016	 0.760518603639373 
2017	 0.761017367159644 
2018	 0.761516631124148 
2019	 0.761901712250948 
2020	 0.762184253194224 
2021	 0.76242890009186 
2022	 0.762620821685871 
2023	 0.762722556864352 
2024	 0.762760165825123 
2025	 0.762755667208989 
2026	 0.762641146568442 
2027	 0.762424694955032 
2028	 0.762131581029642 
2029	 0.761721591552144 
2030	 0.761295150287934 
2031	 0.760793487470522 
2032	 0.760258707447564 
2033	 0.759652914734308 
2034	 0.759069401721928 
2035	 0.758427993840626 
2036	 0.75779481672218 
2037	 0.757257755543325 
2038	 0.756696905766318 
2039	 0.756191095897426 
2040	 0.755723618578406 
2041	 0.755293069019669 
2042	 0.754880560594361 
2043	 0.754546497362426 
2044	 0.754257710133698 
2045	 0.754027146393968 
2046	 0.75383310677063 
2047	 0.753734691179147 
2048	 0.753707254599729 
2049	 0.753755257340997 
2050	 0.753882184419188 
2051	 0.75410330119398 
2052	 0.754402608941472 
2053	 0.754757948760554 
2054	 0.755132041297482 
2055	 0.7555686455422 
2056	 0.756038003018196 
2057	 0.756483616006435 
2058	 0.757077551788871 
2059	 0.75774849884749 
2060	 0.758512394785616 
2061	 0.759448075929882 
2062	 0.760343685854276 
2063	 0.761286632287205 
2064	 0.762272336724371 
2065	 0.763279562235004 
2066	 0.764280860741059 
2067	 0.765445603002 
2068	 0.766574922141134 
2069	 0.767735456305823 
2070	 0.768989558569367 
2071	 0.770115716579545 
2072	 0.77120083700532 
2073	 0.772280635732198 
2074	 0.773272053945984 
2075	 0.774323596800841 
2076	 0.775443383276907 
2077	 0.776466087068474 
2078	 0.777497960210935 
2079	 0.778442107489598 
2080	 0.779288513732141 
2081	 0.780119085061792 
2082	 0.780885686047492 
2083	 0.781639882761968 
2084	 0.782427839388754 
2085	 0.783100256311208 
2086	 0.783756219327626 
2087	 0.784411816735012 
2088	 0.784963039795927 
2089	 0.7854063502148 
2090	 0.785878701960749 
2091	 0.786282292923297 
2092	 0.786711596718243 
2093	 0.787213158624252 
2094	 0.787577223286578 
2095	 0.78786921969571 
2096	 0.788142915599567 
2097	 0.788332422620306 
2098	 0.788485779063959 
2099	 0.788646383616254 
2100	 0.788819255219483 
2101	 0.788987754181322 
2102	 0.789136979407825 
2103	 0.789287673987491 
2104	 0.789452633389063 
2105	 0.789601775433559 
2106	 0.789740564407686 
2107	 0.789861955664474 
2108	 0.789983670233246 
2109	 0.790083718690673 
2110	 0.79015082648225 
2111	 0.790216569131027 
2112	 0.790269040286054 
2113	 0.790325670342123 
2114	 0.79038331698009 
2115	 0.79042447643868 
2116	 0.790464207617403 
2117	 0.790494133818707 
2118	 0.790499905770514 
2119	 0.790475186540804 
2120	 0.790466110925835 
2121	 0.790472630376857 
2122	 0.790413457394688 
2123	 0.79032995749366 
2124	 0.790226511466816 
2125	 0.790097823818197 
2126	 0.78990975201359 
2127	 0.789701946828296 
2128	 0.789448974897861 
2129	 0.789123437259464 
2130	 0.788770485817581 
2131	 0.788430021838731 
2132	 0.787987054086935 
2133	 0.78748052062088 
2134	 0.786913818102937 
2135	 0.786214415570672 
2136	 0.785428580638466 
2137	 0.784537055868095 
2138	 0.783498836598765 
2139	 0.782461221390327 
2140	 0.781351486746321 
2141	 0.780184050612053 
2142	 0.778983886162888 
2143	 0.77769193557064 
2144	 0.776259461890652 
2145	 0.774892738698943 
2146	 0.773447138969665 
2147	 0.772079568662878 
2148	 0.770772473832268 
2149	 0.769447824350284 
2150	 0.768182246162366 
2151	 0.766854698000859 
2152	 0.765466903410935 
2153	 0.764140087261504 
2154	 0.762753288609117 
2155	 0.761279852106456 
2156	 0.75982439434021 
2157	 0.758352014808903 
2158	 0.756846442691158 
2159	 0.755327013929678 
2160	 0.753763537258456 
2161	 0.752167208238982 
2162	 0.750543563226942 
2163	 0.748795913688131 
2164	 0.747206328093286 
2165	 0.745631306457021 
2166	 0.744128624650758 
2167	 0.742759176201139 
2168	 0.741376244254925 
2169	 0.739961317973683 
2170	 0.738678727973294 
2171	 0.737413332760551 
2172	 0.736292931222888 
2173	 0.735328339198131 
2174	 0.734414275324885 
2175	 0.733572837629726 
2176	 0.732890477611362 
2177	 0.732222519571143 
2178	 0.731627601084353 
2179	 0.731071390687427 
2180	 0.730579534938485 
2181	 0.730128720199076 
2182	 0.72971889306372 
2183	 0.729368389131592 
2184	 0.729078263482709 
2185	 0.728839039511158 
2186	 0.728658695870192 
2187	 0.728519975279764 
2188	 0.72843750554619 
2189	 0.728398370739308 
2190	 0.728421793815834 
2191	 0.728472312298278 
2192	 0.728577802923482 
2193	 0.728697432543012 
2194	 0.728894775781597 
2195	 0.729034597694926 
2196	 0.729138019669386 
2197	 0.729311459970149 
2198	 0.729404850185496 
2199	 0.729459047274564 
2200	 0.729568576619322 
2201	 0.729691327164592 
2202	 0.729822147508539 
2203	 0.729984173599639 
2204	 0.730123928787589 
2205	 0.730268517368851 
2206	 0.730389468585622 
2207	 0.730509948893625 
2208	 0.730592208281274 
2209	 0.730617764943182 
2210	 0.730691237650782 
2211	 0.730755240694716 
2212	 0.730835510191881 
2213	 0.730979077833454 
2214	 0.731060697366385 
2215	 0.731079042260352 
2216	 0.731154708677522 
2217	 0.731240116540399 
2218	 0.731322256642291 
2219	 0.731470285164942 
2220	 0.731551236432301 
2221	 0.731621639533896 
2222	 0.73161565369492 
2223	 0.731566808219846 
2224	 0.731491845868202 
2225	 0.731366395547466 
2226	 0.731226489316338 
2227	 0.731050116674698 
2228	 0.730868059814917 
2229	 0.730597813144535 
2230	 0.730269142242754 
2231	 0.729890477530679 
2232	 0.729464158850942 
2233	 0.728950581236117 
2234	 0.728420075858511 
2235	 0.727718296213882 
2236	 0.726898106271883 
2237	 0.725969986737015 
2238	 0.724872157704446 
2239	 0.723750826061776 
2240	 0.722560624929573 
2241	 0.721258948012869 
2242	 0.719915939740693 
2243	 0.718418034692849 
2244	 0.716742323874149 
2245	 0.715052786006142 
2246	 0.713209959906281 
2247	 0.71138865373887 
2248	 0.709585744092107 
2249	 0.707686139892568 
2250	 0.705743508232515 
2251	 0.703772513145846 
2252	 0.701570497990925 
2253	 0.699378751010868 
2254	 0.697146641708483 
2255	 0.694868475060017 
2256	 0.692824041804286 
2257	 0.690751144065351 
2258	 0.688703073043888 
2259	 0.686721213063917 
2260	 0.684735840662361 
2261	 0.682713472494007 
2262	 0.680808562586578 
2263	 0.678914678051752 
2264	 0.67719028358009 
2265	 0.675587604049199 
2266	 0.674021793963867 
2267	 0.672624350578286 
2268	 0.671164394547912 
2269	 0.669685184114182 
2270	 0.668309464539911 
2271	 0.66693471613531 
2272	 0.665698602326442 
2273	 0.664632072324391 
2274	 0.663495998502674 
2275	 0.662439215273397 
2276	 0.661347475367093 
2277	 0.660172566899764 
2278	 0.659103474857091 
2279	 0.658075584040395 
2280	 0.657087192758139 
2281	 0.656213881855771 
2282	 0.65526784904706 
2283	 0.654349122817197 
2284	 0.653358273156667 
2285	 0.652269158863371 
2286	 0.651293068838662 
2287	 0.65028697653228 
2288	 0.649379471221547 
2289	 0.648586832255188 
2290	 0.647743032526181 
2291	 0.646934548482153 
2292	 0.646063855977338 
2293	 0.645091288358046 
2294	 0.644127456969091 
2295	 0.643105454612047 
2296	 0.642012809666454 
2297	 0.640914386693153 
2298	 0.639784251838151 
2299	 0.638620784094975 
2300	 0.637448091359408 
2301	 0.636193411239594 
2302	 0.634842276891572 
2303	 0.633558239892636 
2304	 0.632156001448493 
2305	 0.630985814674617 
2306	 0.629848182714793 
2307	 0.628970142915647 
2308	 0.628168974142502 
2309	 0.627784254408662 
2310	 0.627644265389734 
2311	 0.627918400194297 
2312	 0.628645472864834 
2313	 0.629586545447923 
2314	 0.630975495345028 
2315	 0.63241152541385 
2316	 0.634158829064355 
2317	 0.635835770575125 
2318	 0.637758734011153 
2319	 0.639375823832842 
2320	 0.641049867877562 
2321	 0.64234467151886 
2322	 0.64332383099189 
2323	 0.644160909378336 
2324	 0.644688802069375 
2325	 0.645137689100802 
2326	 0.645478230867059 
2327	 0.645623798299967 
2328	 0.645560809094466 
2329	 0.645406498928953 
2330	 0.645076497116167 
2331	 0.644622418015184 
2332	 0.644118474542769 
2333	 0.643512487313612 
2334	 0.642743977144231 
2335	 0.641947889873879 
2336	 0.641071802754758 
2337	 0.640111673771904 
2338	 0.63916951610629 
2339	 0.637985284484642 
2340	 0.636674363864711 
2341	 0.63536750310265 
2342	 0.633934398837555 
2343	 0.632542094531607 
2344	 0.631234267843639 
2345	 0.629950971624534 
2346	 0.6288290772211 
2347	 0.627924523858004 
2348	 0.627244182005548 
2349	 0.626854607275684 
2350	 0.626869372234478 
2351	 0.627279534541477 
2352	 0.628042329802754 
2353	 0.62920959442099 
2354	 0.630509743556939 
2355	 0.632034758277213 
2356	 0.633649708322108 
2357	 0.635215213310137 
2358	 0.636821970258555 
2359	 0.63828509819019 
2360	 0.639680587054437 
2361	 0.640892836044187 
2362	 0.64179652272375 
2363	 0.642578696568431 
2364	 0.643228430345868 
2365	 0.643697895628235 
2366	 0.644238675398681 
2367	 0.644665763377731 
2368	 0.644903033006557 
2369	 0.645171590563703 
2370	 0.645327952294272 
2371	 0.645462751265858 
2372	 0.645578999768419 
2373	 0.645628775440453 
2374	 0.645750515636337 
2375	 0.645843111361988 
2376	 0.645893676482227 
2377	 0.645837116717452 
2378	 0.645677438193846 
2379	 0.645485219683369 
2380	 0.645218941038637 
2381	 0.64503641378193 
2382	 0.644883337139435 
2383	 0.644771272820336 
2384	 0.64458830097728 
2385	 0.644393559243595 
2386	 0.644251110797595 
2387	 0.644080014885916 
2388	 0.643915636843624 
2389	 0.643856229981014 
2390	 0.643734870165109 
2391	 0.643529590435667 
2392	 0.643345071921819 
2393	 0.643180270041015 
2394	 0.642962101241004 
2395	 0.642671925346548 
2396	 0.6424727376973 
2397	 0.642312602407054 
2398	 0.642150028315565 
2399	 0.642040688154698 
2400	 0.641914882454123 
2401	 0.641765258755138 
2402	 0.641646878025913 
2403	 0.64144864540897 
2404	 0.641347347577218 
2405	 0.641330056677215 
2406	 0.641302395155136 
2407	 0.641407874192744 
2408	 0.641294053746661 
2409	 0.640952042210479 
2410	 0.640552352948622 
2411	 0.640195774733816 
2412	 0.640052560574584 
2413	 0.63996371965967 
2414	 0.639872205409639 
2415	 0.639660542395137 
2416	 0.639292018248871 
2417	 0.638909096611441 
2418	 0.638660630488391 
2419	 0.638386900617781 
2420	 0.637897137987601 
2421	 0.637601564700731 
2422	 0.637340419463759 
2423	 0.636976030116985 
2424	 0.636783121414281 
2425	 0.636390868943805 
2426	 0.635858827774001 
2427	 0.635354802445047 
2428	 0.634799668758488 
2429	 0.63427880490796 
2430	 0.633780305358956 
2431	 0.633368437601702 
2432	 0.632889245046657 
2433	 0.632322132244515 
2434	 0.631761219668693 
2435	 0.631046460377303 
2436	 0.630252231564324 
2437	 0.629574444141691 
2438	 0.628836854181743 
2439	 0.628030285017558 
2440	 0.627272192473048 
2441	 0.626509606001484 
2442	 0.62586525476394 
2443	 0.625124586890289 
2444	 0.624179222534428 
2445	 0.623157240991016 
2446	 0.622055216744983 
2447	 0.62104506686535 
2448	 0.620221726196747 
2449	 0.619398383521524 
2450	 0.618454432940449 
2451	 0.617375265377485 
2452	 0.616181253018162 
2453	 0.615056287160219 
2454	 0.613843024585896 
2455	 0.612904725341982 
2456	 0.61208443720571 
2457	 0.610833315365796 
2458	 0.609821032684343 
2459	 0.608654757958964 
2460	 0.607489812373795 
2461	 0.60695735154176 
2462	 0.606224838198405 
2463	 0.605404091378061 
2464	 0.604658389341776 
2465	 0.603725581925318 
2466	 0.60293513111947 
2467	 0.602364527280879 
2468	 0.601623175778927 
2469	 0.600741666523093 
2470	 0.599898138944349 
2471	 0.598841240222851 
2472	 0.598052223455926 
2473	 0.597432324627207 
2474	 0.596815562552507 
2475	 0.596270615582994 
2476	 0.595288754400192 
2477	 0.594550441031139 
2478	 0.594111349393943 
2479	 0.593754331026084 
2480	 0.593570030377649 
2481	 0.593058935862793 
2482	 0.592244108563769 
2483	 0.591290357207531 
2484	 0.590590260519744 
2485	 0.590102306595447 
2486	 0.589703508887422 
2487	 0.588976529797575 
2488	 0.58857749733868 
2489	 0.588179893493213 
2490	 0.587397288228909 
2491	 0.587231951009375 
2492	 0.586640894942969 
2493	 0.58588932073015 
2494	 0.585668100090954 
2495	 0.585053572333395 
2496	 0.584659973905774 
2497	 0.584113513142046 
2498	 0.58354307082982 
2499	 0.58354174645381 
2500	 0.583661312226049 
